	0.599606	0.131263
	0.592698	
	0.594179	
	0.589738	
	0.592534	
	0.585956	
	0.582831	
	0.570825	
	0.565562	
	0.552570	
	0.540893	
	0.500272	
	0.441066	
	0.370841	
	0.328410	
	0.311306	
	0.294531	
	0.286144	
	0.285321	
	0.276769	
	0.268382	
	0.266408	
	0.262297	
	0.262626	
	0.265257	
	0.268217	
	0.277756	
	0.294367	
	0.302919	
	0.314595	
	0.331041	
	0.358177	
	0.384656	
	0.459814	
	0.521816	
	0.546978	
	0.562602	
	0.575430	
	0.581515	
	0.587765	
	0.594508	
	0.593356	
	0.594508	
	0.590067	
	0.591876	
	0.588587	
	0.578061	
	0.569510	
	0.564411	
	0.554050	
	0.543360	
	0.527736	
	0.477083	
	0.375610	
	0.322490	
	0.316404	
	0.300781	
	0.297327	
	0.291242	
	0.287624	
	0.280223	
	0.280716	
	0.277921	
	0.278085	
	0.278907	
	0.283512	
	0.294367	
	0.309662	
	0.309662	
	0.333015	
	0.354888	
	0.386794	
	0.472149	
	0.508824	
	0.536946	
	0.556517	
	0.567043	
	0.569510	
	0.581022	
	0.582502	
	0.593850	
	0.591218	
	0.592863	
	0.594343	
	0.590889	
	0.588587	
	0.577404	
	0.569838	
	0.564247	
	0.548623	
	0.540071	
	0.528230	
	0.494022	
	0.451427	
	0.356533	
	0.332851	
	0.315911	
	0.298478	
	0.294696	
	0.286144	
	0.273809	0.049958
	0.275289	
	0.275618	
	0.279236	
	0.281045	
	0.282526	
	0.293709	
	0.306537	
	0.312457	
	0.332357	
	0.363605	
	0.392714	
	0.420015	
	0.493529	
	0.538591	
	0.557668	
	0.568852	
	0.578226	
	0.584640	
	0.586778	
	0.597797	
	0.592370	
	0.591054	
	0.591054	
	0.589080	
	0.591876	
	0.583324	
	0.570332	
	0.570990	
	0.552735	
	0.542045	
	0.523625	
	0.505205	
	0.469024	
	0.375446	
	0.344527	
	0.320845	
	0.314760	
	0.304234	
	0.302261	
	0.287295	
	0.290420	
	0.281539	
	0.284170	
	0.283019	
	0.286144	
	0.295847	
	0.304399	
	0.321174	
	0.333179	
	0.360973	
	0.402417	
	0.442875	
	0.502903	
	0.542045	
	0.557833	
	0.566714	
	0.571648	
	0.578555	
	0.586613	
	0.593356	
	0.589738	
	0.591547	
	0.592041	
	0.590396	
	0.586778	
	0.580528	
	0.571483	
	0.570332	
	0.555037	
	0.544511	
	0.526585	
	0.496324	
	0.440079	
	0.360315	
	0.333508	
	0.324299	
	0.311800	
	0.305550	
	0.305221	
	0.287624	
	0.290420	
	0.285650	
	0.288282	
	0.288446	
	0.290913	
	0.304563	
	0.317062	
	0.326272	
	0.358835	
	0.396168	
	0.459321	
	0.469846	
	0.500600	
	0.551090	
	0.565727	
	0.581515	
	0.585133	
	0.592534	
	0.593521	
	0.601250	0.037377
	0.594179	
	0.598126	
	0.597303	
	0.598948	
	0.587765	
	0.583489	
	0.575266	
	0.571812	
	0.555530	
	0.541880	
	0.520336	
	0.496324	
	0.435310	
	0.337949	
	0.321667	
	0.312293	
	0.298807	
	0.288446	
	0.282854	
	0.272658	
	0.272329	
	0.272493	
	0.281868	
	0.289433	
	0.291735	
	0.292393	
	0.303905	
	0.305057	
	0.316404	
	0.334824	
	0.371170	
	0.428896	
	0.492706	
	0.537111	
	0.553557	
	0.572305	
	0.573950	
	0.576088	
	0.576910	
	0.587271	
	0.590396	
	0.591876	
	0.587436	
	0.588258	
	0.586120	
	0.578226	
	0.565398	
	0.564740	
	0.549281	
	0.535137	
	0.509481	
	0.485635	
	0.455374	
	0.362782	
	0.339593	
	0.323970	
	0.306372	
	0.300945	
	0.296505	
	0.287953	
	0.286966	
	0.282690	
	0.290255	
	0.288117	
	0.293215	
	0.300945	
	0.311800	
	0.325121	
	0.341567	
	0.375281	
	0.408667	
	0.490733	
	0.514580	
	0.553063	
	0.566549	
	0.571812	
	0.577075	
	0.582337	
	0.581515	
	0.592863	
	0.594836	
	0.598948	
	0.597468	
	0.595001	
	0.589080	
	0.584804	
	0.567865	
	0.560300	
	0.545334	
	0.529874	
	0.494186	
	0.443204	
	0.376762	
	0.327259	
	0.318707	
	0.309004	
	0.298972	
	0.288117	
	0.285650	
	0.278743	0.034332
	0.288611	
	0.281539	
	0.284006	
	0.286637	
	0.294367	
	0.307524	
	0.324627	
	0.324956	
	0.347159	
	0.355053	
	0.365085	
	0.417877	
	0.491391	
	0.536453	
	0.546321	
	0.569016	
	0.569838	
	0.576088	
	0.579706	
	0.587271	
	0.585298	
	0.587600	
	0.589409	
	0.589903	
	0.589080	
	0.576088	
	0.569838	
	0.567043	
	0.559642	
	0.541058	
	0.520171	
	0.498791	
	0.482016	
	0.373637	
	0.342060	
	0.317227	
	0.306866	
	0.296011	
	0.290091	
	0.280059	
	0.280881	
	0.278743	
	0.288775	
	0.285815	
	0.290584	
	0.295353	
	0.316240	
	0.312786	
	0.329068	
	0.356204	
	0.407845	
	0.492871	
	0.520665	
	0.547636	
	0.563918	
	0.569181	
	0.577897	
	0.581186	
	0.586942	
	0.594179	
	0.594343	
	0.597468	
	0.597961	
	0.593685	
	0.587107	
	0.576581	
	0.561451	
	0.550597	
	0.532670	
	0.537111	
	0.528888	
	0.517375	
	0.501587	
	0.394194	
	0.364427	
	0.329561	
	0.343540	
	0.331370	
	0.321996	
	0.302919	
	0.297327	
	0.292887	
	0.298643	
	0.296176	
	0.299136	
	0.300616	
	0.310977	
	0.310155	
	0.331864	
	0.352092	
	0.385807	
	0.429718	
	0.485141	
	0.535795	
	0.551254	
	0.567536	
	0.574443	
	0.581680	
	0.584640	
	0.589245	0.031037
	0.593356	
	0.595988	
	0.588422	
	0.583818	
	0.586120	
	0.579213	
	0.573621	
	0.565069	
	0.549281	
	0.535137	
	0.501916	
	0.465570	
	0.475274	
	0.371170	
	0.357684	
	0.333179	
	0.324299	
	0.312457	
	0.305057	
	0.292229	
	0.298478	
	0.298478	
	0.294860	
	0.296669	
	0.303083	
	0.301767	
	0.316076	
	0.311306	
	0.325121	
	0.334495	
	0.368210	
	0.380215	
	0.426264	
	0.518527	
	0.524447	
	0.535795	
	0.541387	
	0.553557	
	0.563424	
	0.576746	
	0.577897	
	0.583982	
	0.583653	
	0.582666	
	0.578555	
	0.578719	
	0.565891	
	0.559806	
	0.548623	
	0.530532	
	0.505041	
	0.457183	
	0.415574	
	0.347816	
	0.333179	
	0.316076	
	0.306208	
	0.298314	
	0.292558	
	0.284499	
	0.285157	
	0.278907	
	0.281045	
	0.284335	
	0.289433	
	0.295025	
	0.307195	
	0.310813	
	0.334989	
	0.364263	
	0.396168	
	0.445506	
	0.484483	
	0.536946	
	0.551090	
	0.561615	
	0.570332	
	0.574937	
	0.582502	
	0.591054	
	0.590067	
	0.591712	
	0.586120	
	0.591218	
	0.588094	
	0.581680	
	0.567372	
	0.568358	
	0.557668	
	0.544511	
	0.528723	
	0.501423	
	0.448137	
	0.358835	
	0.339100	
	0.317720	
	0.307853	
	0.303248	
	0.295847	
	0.288446	0.027116
	0.286473	
	0.283512	
	0.284170	
	0.283348	
	0.285321	
	0.290420	
	0.307853	
	0.308839	
	0.341074	
	0.361302	
	0.407022	
	0.467215	
	0.512442	
	0.546156	
	0.557504	
	0.567043	
	0.569345	
	0.573621	
	0.577075	
	0.590232	
	0.588258	
	0.591218	
	0.588422	
	0.592205	
	0.587436	
	0.581844	
	0.575101	
	0.572141	
	0.557339	
	0.548459	
	0.527243	
	0.514415	
	0.488595	
	0.403075	
	0.354888	
	0.327588	
	0.321503	
	0.313609	
	0.300616	
	0.291735	
	0.289268	
	0.282361	
	0.285815	
	0.284006	
	0.284335	
	0.289268	
	0.303741	
	0.310319	
	0.325121	
	0.347488	
	0.373472	
	0.398470	
	0.475931	
	0.521158	
	0.542702	
	0.561122	
	0.566549	
	0.572141	
	0.579706	
	0.587600	
	0.588094	
	0.593850	
	0.592534	
	0.589903	
	0.586613	
	0.582009	
	0.574608	
	0.570003	
	0.563260	
	0.561780	
	0.543689	
	0.525105	
	0.485635	
	0.378077	
	0.364427	
	0.327094	
	0.314102	
	0.305879	
	0.298478	
	0.285486	
	0.283677	
	0.277921	
	0.280881	
	0.281374	
	0.291242	
	0.307030	
	0.321996	
	0.324463	
	0.334989	
	0.338771	
	0.374295	
	0.415574	
	0.440243	
	0.530203	
	0.550432	
	0.568194	
	0.578719	
	0.587107	
	0.587929	
	0.592863	0.033670
	0.590889	
	0.597961	
	0.599112	
	0.597468	
	0.591054	
	0.582995	
	0.568358	
	0.568029	
	0.558326	
	0.543360	
	0.521158	
	0.495502	
	0.453894	
	0.357026	
	0.335482	
	0.309004	
	0.307853	
	0.291900	
	0.289926	
	0.279236	
	0.278907	
	0.279072	
	0.272822	
	0.272329	
	0.279236	
	0.285979	
	0.298478	
	0.311635	
	0.323970	
	0.344856	
	0.401595	
	0.456032	
	0.491555	
	0.541880	
	0.550597	
	0.559148	
	0.570003	
	0.571483	
	0.572141	
	0.579213	
	0.580693	
	0.582502	
	0.576581	
	0.575266	
	0.572963	
	0.572799	
	0.569016	
	0.566385	
	0.548623	
	0.542373	
	0.537440	
	0.528394	
	0.508001	
	0.398141	
	0.356204	
	0.324299	
	0.314924	
	0.309333	
	0.301603	
	0.287788	
	0.280388	
	0.280388	
	0.286966	
	0.288446	
	0.292558	
	0.304563	
	0.320352	
	0.332851	
	0.362618	
	0.408502	
	0.478563	
	0.512771	
	0.526092	
	0.557175	
	0.562109	
	0.566385	
	0.556846	
	0.557175	
	0.560464	
	0.573457	
	0.573785	
	0.581515	
	0.583653	
	0.584147	
	0.584311	
	0.582173	
	0.567207	
	0.567372	
	0.551748	
	0.536946	
	0.516718	
	0.505041	
	0.460472	
	0.372650	
	0.340745	
	0.316076	
	0.311142	
	0.301603	
	0.293051	
	0.286473	0.030091
	0.282197	
	0.281374	
	0.285157	
	0.284992	
	0.284992	
	0.293709	
	0.313115	
	0.317062	
	0.334002	
	0.361796	
	0.418863	
	0.463432	
	0.489417	
	0.528065	
	0.528230	
	0.546814	
	0.546321	
	0.552570	
	0.561451	
	0.580857	
	0.581680	
	0.590396	
	0.586613	
	0.582009	
	0.586942	
	0.581351	
	0.570167	
	0.563753	
	0.557175	
	0.546814	
	0.532341	
	0.504712	
	0.478069	
	0.406529	
	0.358177	
	0.326601	
	0.311635	
	0.303905	
	0.296998	
	0.285815	
	0.284006	
	0.283019	
	0.284170	
	0.287459	
	0.288282	
	0.296340	
	0.307030	
	0.308839	
	0.336798	
	0.382024	
	0.392221	
	0.471820	
	0.480536	
	0.530532	
	0.545169	
	0.563424	
	0.572470	
	0.580364	
	0.586942	
	0.592041	
	0.592534	
	0.594179	
	0.590232	
	0.589574	
	0.584969	
	0.578226	
	0.560629	
	0.551254	
	0.525598	
	0.503232	
	0.463268	
	0.380215	
	0.335317	
	0.300452	
	0.292064	
	0.280716	
	0.293051	
	0.298643	
	0.303412	
	0.302754	
	0.312457	
	0.318378	
	0.312128	
	0.301274	
	0.295682	
	0.306208	
	0.324956	
	0.343212	
	0.381366	
	0.452907	
	0.505863	
	0.529546	
	0.549116	
	0.576088	
	0.583489	
	0.586942	
	0.585298	
	0.583160	
	0.579213	
	0.582009	0.041537
	0.583982	
	0.576581	
	0.568358	
	0.565891	
	0.562109	
	0.569838	
	0.563260	
	0.558326	
	0.540400	
	0.527243	
	0.493035	
	0.489582	
	0.479056	
	0.371992	
	0.332193	
	0.297491	
	0.285157	
	0.274960	
	0.264270	
	0.252100	
	0.247331	
	0.248647	
	0.249633	
	0.260981	
	0.268217	
	0.269698	
	0.285650	
	0.290091	
	0.298972	
	0.316898	
	0.353737	
	0.512935	
	0.541551	
	0.560793	
	0.575101	
	0.591218	
	0.592041	
	0.607500	
	0.612763	
	0.620492	
	0.611447	
	0.600428	
	0.589903	
	0.577568	
	0.563096	
	0.546649	
	0.517375	
	0.512277	
	0.485470	
	0.453894	
	0.415903	
	0.444355	
	0.448137	
	0.425606	
	0.433007	
	0.446822	
	0.416068	
	0.391399	
	0.402911	
	0.374788	
	0.332357	
	0.316404	
	0.313609	
	0.330219	
	0.339100	
	0.329232	
	0.340087	
	0.341402	
	0.344363	
	0.344527	
	0.430047	
	0.528394	
	0.536453	
	0.544511	
	0.546321	
	0.555366	
	0.566549	
	0.572141	
	0.580693	
	0.587271	
	0.585956	
	0.585462	
	0.582666	
	0.579213	
	0.579871	
	0.582173	
	0.574608	
	0.570990	
	0.558491	
	0.549610	
	0.532670	
	0.512442	
	0.481687	
	0.385478	
	0.390247	
	0.387616	
	0.354888	
	0.314102	
	0.303577	
	0.287295	0.031180
	0.277592	
	0.276769	
	0.283183	
	0.286637	
	0.303741	
	0.321667	
	0.351599	
	0.374952	
	0.380873	
	0.412778	
	0.497805	
	0.515895	
	0.486621	
	0.504548	
	0.520665	
	0.547965	
	0.562931	
	0.581515	
	0.580035	
	0.574608	
	0.575595	
	0.573950	
	0.570332	
	0.555859	
	0.552241	
	0.553557	
	0.549116	
	0.557339	
	0.530861	
	0.496982	
	0.475438	
	0.489746	
	0.463926	
	0.398635	
	0.359329	
	0.318542	
	0.298972	
	0.298807	
	0.296998	
	0.290255	
	0.280881	
	0.277921	
	0.277592	
	0.281374	
	0.281374	
	0.292229	
	0.317227	
	0.329397	
	0.334660	
	0.329726	
	0.345678	
	0.372650	
	0.428731	
	0.511290	
	0.522803	
	0.552899	
	0.570661	
	0.573621	
	0.578555	
	0.581515	
	0.589245	
	0.587436	
	0.587929	
	0.594014	
	0.593850	
	0.592041	
	0.581680	
	0.572470	
	0.562602	
	0.545992	
	0.524612	
	0.500929	
	0.476754	
	0.439586	
	0.365743	
	0.327423	
	0.315582	
	0.306372	
	0.302425	
	0.294038	
	0.277921	
	0.271178	
	0.269698	
	0.267889	
	0.262132	
	0.262626	
	0.271178	
	0.281703	
	0.306372	
	0.329068	
	0.376433	
	0.507179	
	0.530039	
	0.557175	
	0.576417	
	0.587600	
	0.588751	
	0.598784	
	0.603882	
	0.605691	0.036939
	0.608816	
	0.614736	
	0.608487	
	0.602073	
	0.589245	
	0.561615	
	0.518033	
	0.497311	
	0.492213	
	0.457512	
	0.422482	
	0.371663	
	0.333179	
	0.314102	
	0.308675	
	0.311635	
	0.310648	
	0.312622	
	0.301767	
	0.301603	
	0.297820	
	0.287788	
	0.281539	
	0.287295	
	0.300781	
	0.316404	
	0.325943	
	0.327259	
	0.336304	
	0.350941	
	0.392056	
	0.444190	
	0.492542	
	0.515073	
	0.549610	
	0.568358	
	0.578555	
	0.589245	
	0.597139	
	0.601415	
	0.600922	
	0.589738	
	0.580199	
	0.574279	
	0.563424	
	0.566385	
	0.559477	
	0.566220	
	0.552406	
	0.545005	
	0.508988	
	0.468860	
	0.432349	
	0.395346	
	0.367881	
	0.343540	
	0.349790	
	0.343047	
	0.333508	
	0.312951	
	0.306866	
	0.299794	
	0.299301	
	0.295847	
	0.305879	
	0.334166	
	0.389918	
	0.377748	
	0.448466	
	0.533328	
	0.551090	
	0.544511	
	0.537275	
	0.554544	
	0.571154	
	0.587436	
	0.589080	
	0.588094	
	0.573128	
	0.562602	
	0.565727	
	0.568687	
	0.572799	
	0.578061	
	0.574114	
	0.567207	
	0.540729	
	0.493200	
	0.407845	
	0.357520	
	0.332686	
	0.307195	
	0.274960	
	0.263284	
	0.255718	
	0.263119	
	0.280059	
	0.267395	
	0.262461	
	0.256376	0.055179
	0.251936	
	0.256212	
	0.260981	
	0.269533	
	0.288282	
	0.297656	
	0.292064	
	0.301767	
	0.317556	
	0.323970	
	0.334660	
	0.366894	
	0.371828	
	0.414259	
	0.524776	
	0.566385	
	0.581186	
	0.596317	
	0.607171	
	0.614243	
	0.621315	
	0.633320	
	0.634143	
	0.622301	
	0.605691	
	0.587271	
	0.575759	
	0.567865	
	0.551583	
	0.534150	
	0.538920	
	0.518198	
	0.393701	
	0.335975	
	0.308510	
	0.305386	
	0.305057	
	0.334002	
	0.348968	
	0.359493	
	0.340580	
	0.335811	
	0.311635	
	0.301274	
	0.288282	
	0.269698	
	0.270520	
	0.284006	
	0.315747	
	0.383833	
	0.458499	
	0.516060	
	0.536124	
	0.563918	
	0.584804	
	0.588916	
	0.591383	
	0.588751	
	0.580199	
	0.586778	
	0.593521	
	0.579213	
	0.584640	
	0.585627	
	0.583653	
	0.577239	
	0.549445	
	0.533328	
	0.521158	
	0.453400	
	0.400115	
	0.445835	
	0.421001	
	0.344692	
	0.321338	
	0.327588	
	0.338771	
	0.344527	
	0.364920	
	0.365249	
	0.332028	
	0.305057	
	0.267395	
	0.253745	
	0.255554	
	0.272329	
	0.329397	
	0.387945	
	0.448466	
	0.496653	
	0.492377	
	0.531848	
	0.575595	
	0.599606	
	0.618190	
	0.632662	
	0.638747	
	0.641050	
	0.644833	
	0.635129	0.088407
	0.618519	
	0.605855	
	0.591547	
	0.580364	
	0.577568	
	0.571483	
	0.501423	
	0.365907	
	0.314431	
	0.285979	
	0.268875	
	0.262626	
	0.267889	
	0.268053	
	0.270520	
	0.266902	
	0.275289	
	0.268053	
	0.270684	
	0.260488	
	0.248318	
	0.253745	
	0.251936	
	0.262790	
	0.297327	
	0.340909	
	0.426100	
	0.509481	
	0.530532	
	0.541222	
	0.500600	
	0.476425	
	0.524118	
	0.544676	
	0.543525	
	0.503561	
	0.334660	
	0.297985	
	0.295353	
	0.329397	
	0.436790	
	0.499778	
	0.554873	
	0.569674	
	0.582995	
	0.601744	
	0.606513	
	0.612105	
	0.602402	
	0.590067	
	0.590396	
	0.583653	
	0.561122	
	0.518033	
	0.433829	
	0.343540	
	0.291242	
	0.260817	
	0.252594	
	0.249962	
	0.248647	
	0.261803	
	0.265751	
	0.276769	
	0.283512	
	0.284170	
	0.318378	
	0.413436	
	0.514251	
	0.547965	
	0.557339	
	0.559477	
	0.554050	
	0.558655	
	0.546978	
	0.539249	
	0.527408	
	0.533493	
	0.558655	
	0.578390	
	0.590396	
	0.584147	
	0.587765	
	0.583818	
	0.592041	
	0.595988	
	0.593685	
	0.600099	
	0.600593	
	0.584311	
	0.560464	
	0.557010	
	0.543854	
	0.504548	
	0.355711	
	0.333673	
	0.413436	
	0.522474	
	0.568852	
	0.587929	0.081244
	0.568194	
	0.524612	
	0.359493	
	0.341731	
	0.321996	
	0.315418	
	0.330548	
	0.304399	
	0.284992	
	0.281539	
	0.292558	
	0.313938	
	0.334166	
	0.357520	
	0.455703	
	0.506521	
	0.554873	
	0.564082	
	0.555037	
	0.544511	
	0.563260	
	0.569510	
	0.570825	
	0.545992	
	0.537604	
	0.494515	
	0.492213	
	0.560629	
	0.558655	
	0.484648	
	0.362782	
	0.328246	
	0.376597	
	0.450111	
	0.398306	
	0.391070	
	0.342060	
	0.297656	
	0.280059	
	0.272493	
	0.271671	
	0.315747	
	0.322654	
	0.358342	
	0.417712	
	0.482839	
	0.408831	
	0.409654	
	0.336633	
	0.311800	
	0.299136	
	0.334002	
	0.401431	
	0.514086	
	0.550103	
	0.562602	
	0.541387	
	0.525763	
	0.522145	
	0.541387	
	0.555037	
	0.541058	
	0.567207	
	0.598126	
	0.615559	
	0.623946	
	0.628551	
	0.617532	
	0.610625	
	0.598948	
	0.600593	
	0.583653	
	0.548623	
	0.537769	
	0.546978	
	0.509810	
	0.497311	
	0.411956	
	0.300452	
	0.265422	
	0.246344	
	0.242726	
	0.224306	
	0.218550	
	0.213945	
	0.214274	
	0.224800	
	0.234010	
	0.256541	
	0.307359	
	0.387780	
	0.531848	
	0.559642	
	0.579213	
	0.596810	
	0.603388	
	0.599935	
	0.579706	
	0.573785	
	0.558491	0.104825
	0.573621	
	0.580364	
	0.565891	
	0.553228	
	0.543360	
	0.531355	
	0.540071	
	0.532670	
	0.432678	
	0.296176	
	0.267395	
	0.279894	
	0.287130	
	0.274960	
	0.285486	
	0.301767	
	0.322818	
	0.347159	
	0.356368	
	0.379557	
	0.341896	
	0.365085	
	0.437776	
	0.455045	
	0.399951	
	0.306208	
	0.286802	
	0.269862	
	0.251114	
	0.237957	
	0.240259	
	0.259830	
	0.284828	
	0.336633	
	0.489911	
	0.532341	
	0.568194	
	0.582666	
	0.600428	
	0.601744	
	0.613914	
	0.608322	
	0.606678	
	0.601415	
	0.596646	
	0.595659	
	0.597468	
	0.598619	
	0.600428	
	0.607829	
	0.619670	
	0.620821	
	0.603882	
	0.587929	
	0.572141	
	0.596317	
	0.603388	
	0.596974	
	0.566056	
	0.375446	
	0.278414	
	0.280388	
	0.286473	
	0.313773	
	0.397484	
	0.511290	
	0.513099	
	0.523461	
	0.526914	
	0.567536	
	0.582995	
	0.582502	
	0.568523	
	0.550925	
	0.581351	
	0.587929	
	0.575923	
	0.543854	
	0.462281	
	0.467050	
	0.348803	
	0.295682	
	0.282526	
	0.298478	
	0.358506	
	0.548459	
	0.591712	
	0.608651	
	0.620328	
	0.617697	
	0.628386	
	0.640557	
	0.633320	
	0.609473	
	0.566549	
	0.436790	
	0.327423	
	0.302425	
	0.278907	
	0.267231	0.104721
	0.246838	
	0.252100	
	0.258514	
	0.256047	
	0.254238	
	0.261639	
	0.248153	
	0.226609	
	0.219373	
	0.205229	
	0.199637	
	0.214932	
	0.231543	
	0.249962	
	0.309333	
	0.340416	
	0.497147	
	0.522309	
	0.493200	
	0.485635	
	0.555695	
	0.575266	
	0.597961	
	0.608322	
	0.615065	
	0.628058	
	0.619341	
	0.603224	
	0.611611	
	0.620986	
	0.636938	
	0.633978	
	0.626742	
	0.618190	
	0.608980	
	0.615559	
	0.598784	
	0.580035	
	0.554544	
	0.451920	
	0.273809	
	0.264764	
	0.256870	
	0.250949	
	0.241410	
	0.271836	
	0.324134	
	0.437283	
	0.387451	
	0.562767	
	0.592698	
	0.601579	
	0.613421	
	0.622795	
	0.613585	
	0.586285	
	0.530203	
	0.464419	
	0.396497	
	0.328410	
	0.535631	
	0.585627	
	0.599441	
	0.591218	
	0.599441	
	0.601250	
	0.610789	
	0.619341	
	0.613092	
	0.576417	
	0.531519	
	0.339264	
	0.272165	
	0.254732	
	0.260323	
	0.256870	
	0.258021	
	0.255061	
	0.245686	
	0.231543	
	0.211643	
	0.202104	
	0.195526	
	0.194046	
	0.197499	
	0.211643	
	0.228254	
	0.242233	
	0.241904	
	0.245851	
	0.249140	
	0.271178	
	0.274960	
	0.271507	
	0.301274	
	0.315089	
	0.326437	
	0.415245	
	0.556188	
	0.603060	0.106776
	0.621479	
	0.628551	
	0.625755	
	0.614736	
	0.594179	
	0.593850	
	0.604046	
	0.592534	
	0.558162	
	0.505863	
	0.439586	
	0.495667	
	0.464419	
	0.393537	
	0.319858	
	0.300781	
	0.299136	
	0.284499	
	0.265422	
	0.267724	
	0.270355	
	0.285815	
	0.304399	
	0.336798	
	0.407187	
	0.508659	
	0.547143	
	0.562931	
	0.575430	
	0.597303	
	0.601579	
	0.610954	
	0.605033	
	0.593356	
	0.593850	
	0.594343	
	0.613585	
	0.631840	
	0.629538	
	0.621315	
	0.621315	
	0.599441	
	0.596810	
	0.582995	
	0.573292	
	0.581680	
	0.602073	
	0.595494	
	0.510633	
	0.392714	
	0.335317	
	0.301932	
	0.289433	
	0.273151	
	0.258185	
	0.256870	
	0.251278	
	0.252265	
	0.262626	
	0.343376	
	0.533986	
	0.577239	
	0.573950	
	0.585791	
	0.610625	
	0.602073	
	0.585462	
	0.574114	
	0.595659	
	0.594836	
	0.598126	
	0.620492	
	0.633649	
	0.633649	
	0.641379	
	0.655194	
	0.653220	
	0.646806	
	0.644339	
	0.619670	
	0.487444	
	0.285815	
	0.323476	
	0.343212	
	0.435310	
	0.532670	
	0.559313	
	0.547636	
	0.545005	
	0.550761	
	0.576910	
	0.588258	
	0.614407	
	0.597468	
	0.579871	
	0.556517	
	0.373801	
	0.268217	
	0.259008	
	0.280716	0.122215
	0.271836	
	0.277921	
	0.249798	
	0.217892	
	0.205558	
	0.199966	
	0.210821	
	0.233516	
	0.233516	
	0.237299	
	0.265915	
	0.296669	
	0.306537	
	0.297820	
	0.308839	
	0.321832	
	0.403898	
	0.559642	
	0.613914	
	0.620821	
	0.619834	
	0.568523	
	0.488595	
	0.392221	
	0.503725	
	0.571154	
	0.599441	
	0.598455	
	0.585627	
	0.571648	
	0.557175	
	0.523461	
	0.498627	
	0.379228	
	0.365743	
	0.333344	
	0.260323	
	0.225458	
	0.220524	
	0.222991	
	0.189112	
	0.181876	
	0.178915	
	0.175626	
	0.172995	
	0.190921	
	0.205887	
	0.218879	
	0.226773	
	0.247166	
	0.285815	
	0.458334	
	0.565234	
	0.592370	
	0.608980	
	0.610131	
	0.621808	
	0.625262	
	0.627235	
	0.627564	
	0.640228	
	0.634800	
	0.626084	
	0.609309	
	0.594179	
	0.592205	
	0.585791	
	0.587929	
	0.595494	
	0.591218	
	0.569510	
	0.507014	
	0.341567	
	0.293544	
	0.266408	
	0.261310	
	0.265257	
	0.274303	
	0.268217	
	0.251278	
	0.233681	
	0.234174	
	0.234832	
	0.243548	
	0.253416	
	0.259501	
	0.260817	
	0.261803	
	0.308346	
	0.363440	
	0.491062	
	0.530368	
	0.562767	
	0.593850	
	0.627893	
	0.632169	
	0.633156	
	0.617697	
	0.621479	
	0.632169	0.089154
	0.633156	
	0.638419	
	0.650095	
	0.644997	
	0.632169	
	0.625262	
	0.610460	
	0.600264	
	0.597961	
	0.613749	
	0.617532	
	0.598784	
	0.519185	
	0.309333	
	0.247495	
	0.228747	
	0.215261	
	0.201282	
	0.190921	
	0.192072	
	0.200460	
	0.223813	
	0.234010	
	0.258021	
	0.280388	
	0.291571	
	0.276934	
	0.273974	
	0.284006	
	0.324134	
	0.359000	
	0.486950	
	0.552899	
	0.591218	
	0.620986	
	0.630853	
	0.637761	
	0.633320	
	0.630689	
	0.635787	
	0.636774	
	0.624933	
	0.616710	
	0.585627	
	0.616052	
	0.654207	
	0.676409	
	0.688250	
	0.696802	
	0.688086	
	0.685290	
	0.670653	
	0.643681	
	0.637432	
	0.643188	
	0.643188	
	0.645655	
	0.650424	
	0.616052	
	0.556517	
	0.529052	
	0.509646	
	0.402417	
	0.364591	
	0.293215	
	0.260323	
	0.243219	
	0.224142	
	0.207860	
	0.191743	
	0.187796	
	0.217399	
	0.257528	
	0.299958	
	0.446164	
	0.568852	
	0.625755	
	0.637925	
	0.625755	
	0.630524	
	0.652398	
	0.687757	
	0.719991	
	0.729530	
	0.719333	
	0.686770	
	0.654042	
	0.669173	
	0.678218	
	0.674435	
	0.667857	
	0.659798	
	0.638583	
	0.618354	
	0.596646	
	0.519185	
	0.233681	
	0.186645	
	0.166416	
	0.162469	0.149996
	0.147832	
	0.134018	
	0.134511	
	0.136320	
	0.139280	
	0.139774	
	0.140267	
	0.141583	
	0.142734	
	0.144050	
	0.145694	
	0.146845	
	0.148326	
	0.151286	
	0.199966	
	0.215426	
	0.224800	
	0.238615	
	0.267724	
	0.301767	
	0.358342	
	0.371334	
	0.361631	
	0.337949	
	0.350283	
	0.381366	
	0.340087	
	0.330219	
	0.407680	
	0.390905	
	0.437283	
	0.424126	
	0.466228	
	0.537440	
	0.538426	
	0.554215	
	0.467379	
	0.288775	
	0.246838	
	0.222168	
	0.197664	
	0.181218	
	0.171186	
	0.174475	
	0.196677	
	0.220030	
	0.230720	
	0.250127	
	0.267724	
	0.289597	
	0.322490	
	0.360315	
	0.538426	
	0.602566	
	0.625920	
	0.629209	
	0.623946	
	0.605691	
	0.603060	
	0.602731	
	0.604211	
	0.603060	
	0.611776	
	0.615065	
	0.613092	
	0.603717	
	0.594672	
	0.597632	
	0.606678	
	0.615887	
	0.619670	
	0.599770	
	0.591054	
	0.571648	
	0.525434	
	0.512606	
	0.395839	
	0.357355	
	0.396168	
	0.547965	
	0.561780	
	0.577404	
	0.599606	
	0.603882	
	0.561122	
	0.340416	
	0.298149	
	0.355217	
	0.543360	
	0.573292	
	0.593521	
	0.612269	
	0.615394	
	0.622959	
	0.641872	
	0.658812	
	0.659634	
	0.649109	
	0.656016	
	0.659963	0.133258
	0.656345	
	0.659634	
	0.653713	
	0.652069	
	0.664239	
	0.647464	
	0.609638	
	0.542209	
	0.354888	
	0.268217	
	0.229898	
	0.206545	
	0.200789	
	0.212136	
	0.213781	
	0.252429	
	0.330548	
	0.547307	
	0.580199	
	0.558655	
	0.550597	
	0.593521	
	0.633485	
	0.657825	
	0.655358	
	0.654536	
	0.653878	
	0.625097	
	0.618354	
	0.620657	
	0.636445	
	0.650918	
	0.654536	
	0.614736	
	0.572963	
	0.364263	
	0.262297	
	0.222168	
	0.218386	
	0.187796	
	0.167239	
	0.174639	
	0.195197	
	0.200295	
	0.219044	
	0.259172	
	0.308346	
	0.547307	
	0.613914	
	0.617368	
	0.597139	
	0.567865	
	0.556188	
	0.559313	
	0.602895	
	0.647464	
	0.681014	
	0.707657	
	0.728872	
	0.739233	
	0.726076	
	0.682494	
	0.627729	
	0.593685	
	0.579377	
	0.558326	
	0.324627	
	0.271013	
	0.237628	
	0.211479	
	0.201611	
	0.201611	
	0.195197	
	0.186480	
	0.217399	
	0.299794	
	0.322490	
	0.236641	
	0.203584	
	0.200953	
	0.203420	
	0.180395	
	0.161318	
	0.144707	
	0.143227	
	0.145036	
	0.146681	
	0.148655	
	0.189276	
	0.201117	
	0.208025	
	0.211972	
	0.213452	
	0.207860	
	0.208189	
	0.218879	
	0.205393	
	0.206051	
	0.206380	
	0.209998	0.164440
	0.211807	
	0.222991	
	0.233516	
	0.250291	
	0.274303	
	0.303083	
	0.357520	
	0.402746	
	0.487937	
	0.557010	
	0.538591	
	0.552406	
	0.549939	
	0.381531	
	0.275783	
	0.266244	
	0.290255	
	0.313609	
	0.353244	
	0.396497	
	0.538755	
	0.573292	
	0.591712	
	0.609802	
	0.610296	
	0.610954	
	0.615394	
	0.612269	
	0.603882	
	0.597468	
	0.596152	
	0.597797	
	0.592370	
	0.581022	
	0.550761	
	0.527901	
	0.413272	
	0.378735	
	0.346501	
	0.332357	
	0.331535	
	0.337455	
	0.328575	
	0.337620	
	0.340909	
	0.339100	
	0.343376	
	0.344198	
	0.348474	
	0.372321	
	0.369196	
	0.410640	
	0.508330	
	0.522145	
	0.557339	
	0.571976	
	0.588094	
	0.595659	
	0.604375	
	0.606513	
	0.616052	
	0.621808	
	0.628551	
	0.631840	
	0.632005	
	0.632827	
	0.634143	
	0.639405	
	0.645984	
	0.665061	
	0.676573	
	0.680849	
	0.673449	
	0.668186	
	0.649437	
	0.630689	
	0.617532	
	0.597632	
	0.575266	
	0.610296	
	0.655522	
	0.660950	
	0.660292	
	0.672462	
	0.648286	
	0.588422	
	0.509646	
	0.524118	
	0.545992	
	0.447151	
	0.252758	
	0.214768	
	0.231707	
	0.253416	
	0.309662	
	0.329232	
	0.508988	
	0.593192	
	0.620657	
	0.641379	0.178958
	0.661936	
	0.687099	
	0.698447	
	0.722129	
	0.732326	
	0.734957	
	0.721471	
	0.709301	
	0.696309	
	0.692033	
	0.660127	
	0.586778	
	0.301110	
	0.258514	
	0.255061	
	0.206874	
	0.183849	
	0.150957	
	0.140267	
	0.182862	
	0.220524	
	0.245686	
	0.248811	
	0.253580	
	0.288611	
	0.277756	
	0.206216	
	0.202927	
	0.244206	
	0.236148	
	0.215590	
	0.214932	
	0.194210	
	0.167568	
	0.167403	
	0.163456	
	0.161154	
	0.164936	
	0.185165	
	0.186809	
	0.192072	
	0.205065	
	0.202269	
	0.201775	
	0.232858	
	0.260817	
	0.272000	
	0.286966	
	0.314595	
	0.320516	
	0.329561	
	0.377748	
	0.554544	
	0.577897	
	0.573457	
	0.513922	
	0.499614	
	0.372814	
	0.364427	
	0.488101	
	0.576746	
	0.600099	
	0.594014	
	0.575595	
	0.582995	
	0.550925	
	0.442546	
	0.512935	
	0.464584	
	0.291735	
	0.244042	
	0.248811	
	0.250291	
	0.248318	
	0.242397	
	0.233516	
	0.230720	
	0.246509	
	0.263284	
	0.268382	
	0.280881	
	0.302261	
	0.328246	
	0.357849	
	0.414752	
	0.397155	
	0.381038	
	0.385642	
	0.415903	
	0.438105	
	0.487115	
	0.417548	
	0.378900	
	0.396497	
	0.339100	
	0.317556	
	0.304892	
	0.298972	
	0.296011	
	0.291735	0.138129
	0.279401	
	0.268875	
	0.262955	
	0.261475	
	0.265257	
	0.274796	
	0.299958	
	0.326930	
	0.351106	
	0.386958	
	0.480536	
	0.509152	
	0.539742	
	0.550597	
	0.565069	
	0.572470	
	0.597468	
	0.602731	
	0.599770	
	0.597303	
	0.601579	
	0.604704	
	0.609473	
	0.614078	
	0.614407	
	0.611611	
	0.601908	
	0.595988	
	0.593521	
	0.594179	
	0.591054	
	0.585462	
	0.571976	
	0.569181	
	0.540893	
	0.516553	
	0.517211	
	0.513099	
	0.449289	
	0.397484	
	0.358342	
	0.316569	
	0.305715	
	0.321174	
	0.350941	
	0.337291	
	0.342225	
	0.350448	
	0.404555	
	0.551090	
	0.589245	
	0.607829	
	0.608816	
	0.613585	
	0.594343	
	0.578061	
	0.619670	
	0.665719	
	0.678711	
	0.674271	
	0.658483	
	0.652069	
	0.658976	
	0.663252	
	0.651411	
	0.648286	
	0.658318	
	0.673120	
	0.679534	
	0.674929	
	0.636938	
	0.555859	
	0.508166	
	0.506357	
	0.307359	
	0.256212	
	0.275618	
	0.427909	
	0.591547	
	0.630524	
	0.663088	
	0.679369	
	0.648286	
	0.483990	
	0.212301	
	0.197828	
	0.201446	
	0.237957	
	0.252594	
	0.288775	
	0.278743	
	0.264599	
	0.268875	
	0.258350	
	0.278250	
	0.345021	
	0.604704	
	0.685783	
	0.706012	
	0.701571	0.182811
	0.683152	
	0.670159	
	0.644833	
	0.623782	
	0.600264	
	0.413601	
	0.190263	
	0.143227	
	0.135498	
	0.136649	
	0.138129	
	0.143556	
	0.219866	
	0.257692	
	0.563096	
	0.639241	
	0.619999	
	0.579542	
	0.541058	
	0.580364	
	0.608158	
	0.632991	
	0.636774	
	0.658976	
	0.687921	
	0.711110	
	0.724925	
	0.710288	
	0.677889	
	0.636281	
	0.395510	
	0.203913	
	0.149970	
	0.131386	
	0.132044	
	0.134182	
	0.135333	
	0.137142	
	0.138458	
	0.140267	
	0.148983	
	0.197993	
	0.214768	
	0.215919	
	0.220853	
	0.233187	
	0.241575	
	0.243548	
	0.240259	
	0.245522	
	0.258514	
	0.276605	
	0.269204	
	0.258514	
	0.250456	
	0.245357	
	0.245029	
	0.250620	
	0.244206	
	0.235654	
	0.231049	
	0.232529	
	0.240259	
	0.257856	
	0.260488	
	0.257692	
	0.258514	
	0.253087	
	0.245357	
	0.249304	
	0.259994	
	0.272329	
	0.292229	
	0.348474	
	0.355875	
	0.384162	
	0.402746	
	0.381202	
	0.319858	
	0.297656	
	0.315911	
	0.351106	
	0.390412	
	0.501423	
	0.533657	
	0.575595	
	0.605855	
	0.621972	
	0.629044	
	0.632991	
	0.632334	
	0.614407	
	0.598455	
	0.597139	
	0.584311	
	0.564905	
	0.529546	
	0.474287	
	0.408996	
	0.382189	0.215319
	0.422811	
	0.457512	
	0.370841	
	0.335153	
	0.522474	
	0.586120	
	0.599441	
	0.600757	
	0.607007	
	0.621808	
	0.628058	
	0.617203	
	0.603224	
	0.608487	
	0.648944	
	0.679698	
	0.727227	
	0.738246	
	0.724432	
	0.688086	
	0.668021	
	0.661936	
	0.680521	
	0.692691	
	0.694171	
	0.689072	
	0.709630	
	0.717853	
	0.713742	
	0.714235	
	0.707492	
	0.692691	
	0.666706	
	0.609967	
	0.494680	
	0.258514	
	0.205393	
	0.180724	
	0.183520	
	0.203091	
	0.251114	
	0.358506	
	0.564740	
	0.583982	
	0.359000	
	0.245851	
	0.211807	
	0.187796	
	0.169212	
	0.175791	
	0.201940	
	0.205722	
	0.195032	
	0.178093	
	0.166416	
	0.201282	
	0.219373	
	0.284664	
	0.321503	
	0.307853	
	0.261639	
	0.287953	
	0.477576	
	0.548294	
	0.392221	
	0.460637	
	0.383998	
	0.310977	
	0.266244	
	0.245851	
	0.242891	
	0.241575	
	0.218221	
	0.216248	
	0.207860	
	0.202762	
	0.187796	
	0.186316	
	0.205393	
	0.232858	
	0.243219	
	0.244535	
	0.257528	
	0.275783	
	0.259666	
	0.254567	
	0.262461	
	0.270684	
	0.282690	
	0.265751	
	0.248482	
	0.239766	
	0.238121	
	0.259008	
	0.292393	
	0.281374	
	0.266244	
	0.264764	
	0.292887	
	0.395510	0.136493
	0.567700	
	0.601415	
	0.597303	
	0.599606	
	0.588258	
	0.582502	
	0.599277	
	0.608816	
	0.604704	
	0.580693	
	0.544018	
	0.405049	
	0.307688	
	0.293544	
	0.295518	
	0.297491	
	0.300123	
	0.332686	
	0.392714	
	0.448795	
	0.380544	
	0.354230	
	0.341731	
	0.346172	
	0.386958	
	0.362782	
	0.341896	
	0.346830	
	0.359000	
	0.358013	
	0.391399	
	0.506192	
	0.517047	
	0.499120	
	0.505370	
	0.517540	
	0.535302	
	0.546978	
	0.561286	
	0.576252	
	0.594672	
	0.605033	
	0.607664	
	0.599277	
	0.605691	
	0.614901	
	0.614736	
	0.606513	
	0.600264	
	0.604046	
	0.597468	
	0.578226	
	0.539413	
	0.485470	
	0.376762	
	0.342060	
	0.333344	
	0.373637	
	0.397319	
	0.511455	
	0.532341	
	0.507508	
	0.537275	
	0.550103	
	0.575759	
	0.591383	
	0.631018	
	0.645161	
	0.649602	
	0.624933	
	0.595988	
	0.542045	
	0.565234	
	0.592041	
	0.606349	
	0.627235	
	0.641050	
	0.659470	
	0.681507	
	0.701078	
	0.703709	
	0.708479	
	0.679040	
	0.647299	
	0.599112	
	0.519020	
	0.323312	
	0.296176	
	0.319858	
	0.524776	
	0.556024	
	0.396990	
	0.248482	
	0.226116	
	0.265751	
	0.355053	
	0.563918	
	0.563424	
	0.545005	
	0.566385	0.158639
	0.596974	
	0.599112	
	0.615559	
	0.656016	
	0.698118	
	0.696967	
	0.669502	
	0.615230	
	0.372650	
	0.250620	
	0.237463	
	0.219702	
	0.215754	
	0.201117	
	0.187138	
	0.196184	
	0.214932	
	0.248647	
	0.241410	
	0.235325	
	0.251278	
	0.307688	
	0.367223	
	0.400444	
	0.312457	
	0.337949	
	0.509152	
	0.517540	
	0.554544	
	0.578719	
	0.597961	
	0.602402	
	0.638090	
	0.681672	
	0.659141	
	0.574937	
	0.330713	
	0.229240	
	0.217564	
	0.212959	
	0.181711	
	0.142569	
	0.143885	
	0.145530	
	0.194704	
	0.434158	
	0.604046	
	0.607500	
	0.573128	
	0.515566	
	0.305715	
	0.250949	
	0.189934	
	0.152273	
	0.147997	
	0.149312	
	0.150464	
	0.152108	
	0.153095	
	0.155068	
	0.156384	
	0.220195	
	0.245851	
	0.282197	
	0.379393	
	0.459156	
	0.379557	
	0.337291	
	0.321174	
	0.347981	
	0.423797	
	0.356039	
	0.366072	
	0.387616	
	0.479878	
	0.484483	
	0.454223	
	0.353573	
	0.323476	
	0.319694	
	0.304728	
	0.288611	
	0.294038	
	0.290749	
	0.294860	
	0.303083	
	0.308839	
	0.306208	
	0.315418	
	0.319694	
	0.340251	
	0.374130	
	0.466557	
	0.528065	
	0.543854	
	0.574608	
	0.592698	
	0.604211	
	0.603224	
	0.608158	0.155185
	0.615723	
	0.623782	
	0.627729	
	0.638747	
	0.635787	
	0.637596	
	0.630853	
	0.618519	
	0.611118	
	0.598455	
	0.578719	
	0.551254	
	0.527901	
	0.528723	
	0.515566	
	0.475274	
	0.390905	
	0.336798	
	0.326765	
	0.312786	
	0.311964	
	0.308675	
	0.335811	
	0.341567	
	0.316898	
	0.301274	
	0.303905	
	0.307524	
	0.313773	
	0.339264	
	0.365085	
	0.429882	
	0.474122	
	0.460965	
	0.459979	
	0.565727	
	0.607993	
	0.638747	
	0.654865	
	0.669008	
	0.677067	
	0.686112	
	0.683481	
	0.668844	
	0.667857	
	0.669502	
	0.669173	
	0.674271	
	0.666212	
	0.653713	
	0.662430	
	0.647464	
	0.634143	
	0.578226	
	0.314431	
	0.260817	
	0.272658	
	0.265257	
	0.261475	
	0.272165	
	0.257856	
	0.236805	
	0.249633	
	0.382682	
	0.596646	
	0.610460	
	0.619999	
	0.633978	
	0.632827	
	0.619670	
	0.547472	
	0.279730	
	0.224142	
	0.206380	
	0.201940	
	0.219866	
	0.293051	
	0.555695	
	0.627729	
	0.645326	
	0.663088	
	0.677725	
	0.685454	
	0.695322	
	0.696473	
	0.686934	
	0.700914	
	0.695322	
	0.671640	
	0.663581	
	0.619177	
	0.526092	
	0.275125	
	0.229734	
	0.205065	
	0.199308	
	0.205229	
	0.205065	
	0.200624	
	0.212959	0.139829
	0.212136	
	0.200460	
	0.179409	
	0.176777	
	0.197499	
	0.207203	
	0.189276	
	0.161811	
	0.164443	
	0.194210	
	0.229569	
	0.295189	
	0.392714	
	0.556024	
	0.570661	
	0.591218	
	0.567372	
	0.526750	
	0.301932	
	0.251442	
	0.229898	
	0.228418	
	0.209998	
	0.234339	
	0.285979	
	0.317720	
	0.298972	
	0.281868	
	0.274303	
	0.271342	
	0.279565	
	0.278085	
	0.264599	
	0.245357	
	0.245193	
	0.250456	
	0.257363	
	0.257528	
	0.248811	
	0.239437	
	0.234339	
	0.227596	
	0.230392	
	0.230063	
	0.224964	
	0.228089	
	0.232694	
	0.248976	
	0.263777	
	0.273480	
	0.295518	
	0.318871	
	0.353737	
	0.403733	
	0.446822	
	0.531026	
	0.559971	
	0.565234	
	0.571976	
	0.585956	
	0.591876	
	0.602073	
	0.594672	
	0.596646	
	0.593356	
	0.588751	
	0.591054	
	0.598619	
	0.602073	
	0.606678	
	0.601250	
	0.600757	
	0.585133	
	0.560958	
	0.541880	
	0.452249	
	0.341731	
	0.316076	
	0.298314	
	0.292393	
	0.305386	
	0.302590	
	0.288940	
	0.259501	
	0.251771	
	0.246838	
	0.251936	
	0.274303	
	0.300452	
	0.296176	
	0.301110	
	0.312457	
	0.361138	
	0.378900	
	0.434981	
	0.540729	
	0.545005	
	0.565891	
	0.583489	
	0.612927	0.175678
	0.627564	
	0.634472	
	0.624275	
	0.613421	
	0.610296	
	0.616381	
	0.622630	
	0.618190	
	0.609802	
	0.621644	
	0.622466	
	0.624439	
	0.623453	
	0.646806	
	0.649437	
	0.633156	
	0.602402	
	0.594014	
	0.604375	
	0.603882	
	0.599277	
	0.583982	
	0.597139	
	0.599770	
	0.632334	
	0.665555	
	0.674107	
	0.657825	
	0.633978	
	0.601250	
	0.327423	
	0.265422	
	0.226609	
	0.215590	
	0.218550	
	0.259172	
	0.526256	
	0.620657	
	0.658812	
	0.695486	
	0.685948	
	0.671969	
	0.665061	
	0.664403	
	0.651411	
	0.643681	
	0.634307	
	0.586449	
	0.454058	
	0.564247	
	0.595165	
	0.612598	
	0.610625	
	0.616052	
	0.581844	
	0.259008	
	0.202598	
	0.163292	
	0.145694	
	0.146352	
	0.149806	
	0.156055	
	0.163620	
	0.163456	
	0.167403	
	0.174968	
	0.177600	
	0.178751	
	0.172337	
	0.177106	
	0.195032	
	0.215590	
	0.295682	
	0.483168	
	0.506521	
	0.317062	
	0.241410	
	0.224635	
	0.230885	
	0.291078	
	0.540729	
	0.614572	
	0.636609	
	0.624275	
	0.617039	
	0.619341	
	0.628058	
	0.636116	
	0.662923	
	0.680849	
	0.687592	
	0.671804	
	0.609309	
	0.388603	
	0.213781	
	0.167568	
	0.155397	
	0.155397	
	0.168390	
	0.188618	0.105481
	0.190756	
	0.170034	
	0.164278	
	0.166745	
	0.179080	
	0.190099	
	0.208354	
	0.225622	
	0.240095	
	0.255225	
	0.264270	
	0.275947	
	0.293215	
	0.315747	
	0.338771	
	0.461294	
	0.556846	
	0.579048	
	0.583324	
	0.590232	
	0.594179	
	0.602402	
	0.602073	
	0.603553	
	0.599770	
	0.600264	
	0.601250	
	0.601250	
	0.596974	
	0.591876	
	0.582995	
	0.586285	
	0.574937	
	0.557339	
	0.524776	
	0.413436	
	0.373308	
	0.331864	
	0.313773	
	0.288611	
	0.278414	
	0.264435	
	0.270027	
	0.270355	
	0.282361	
	0.286966	
	0.292393	
	0.296340	
	0.319200	
	0.340580	
	0.338771	
	0.358013	
	0.343540	
	0.396826	
	0.425113	
	0.503067	
	0.535302	
	0.543854	
	0.575759	
	0.609145	
	0.628551	
	0.655029	
	0.661114	
	0.667035	
	0.656509	
	0.644010	
	0.625591	
	0.620821	
	0.601415	
	0.570003	
	0.520994	
	0.492213	
	0.477247	
	0.487444	
	0.491884	
	0.495831	
	0.547965	
	0.553557	
	0.556024	
	0.573785	
	0.603882	
	0.616545	
	0.618683	
	0.620328	
	0.638747	
	0.647628	
	0.637267	
	0.640392	
	0.657660	
	0.673449	
	0.677889	
	0.694993	
	0.672462	
	0.656180	
	0.644668	
	0.633485	
	0.589409	
	0.568523	
	0.553228	
	0.410312	0.163941
	0.282197	
	0.341896	
	0.327917	
	0.395181	
	0.592534	
	0.663910	
	0.675916	
	0.663088	
	0.632662	
	0.607335	
	0.593027	
	0.556517	
	0.536617	
	0.571319	
	0.594343	
	0.603060	
	0.575595	
	0.377419	
	0.241904	
	0.181711	
	0.163292	
	0.154411	
	0.161154	
	0.180889	
	0.233023	
	0.330713	
	0.535795	
	0.592863	
	0.587436	
	0.587107	
	0.595823	
	0.587107	
	0.465570	
	0.310319	
	0.268875	
	0.258021	
	0.245522	
	0.198157	
	0.176448	
	0.174475	
	0.178586	
	0.194704	
	0.209505	
	0.219702	
	0.221346	
	0.230063	
	0.283348	
	0.506850	
	0.593521	
	0.604046	
	0.598948	
	0.590232	
	0.594836	
	0.595988	
	0.594179	
	0.600922	
	0.584969	
	0.521816	
	0.370841	
	0.436625	
	0.345185	
	0.257528	
	0.223813	
	0.196184	
	0.170363	
	0.155726	
	0.155562	
	0.156713	
	0.158358	
	0.159838	
	0.178422	
	0.198651	
	0.215261	
	0.229240	
	0.239601	
	0.257856	
	0.255718	
	0.262955	
	0.280716	
	0.346172	
	0.523954	
	0.567865	
	0.577568	
	0.591218	
	0.582009	
	0.582009	
	0.588916	
	0.592863	
	0.571483	
	0.554379	
	0.530861	
	0.475767	
	0.474780	
	0.528394	
	0.574114	
	0.577404	
	0.555859	
	0.505041	
	0.497969	
	0.466228	0.148372
	0.363605	
	0.307030	
	0.297491	
	0.285321	
	0.287295	
	0.279236	
	0.277756	
	0.289597	
	0.304728	
	0.305715	
	0.328739	
	0.352257	
	0.372486	
	0.397319	
	0.389261	
	0.423962	
	0.448466	
	0.512606	
	0.545827	
	0.563260	
	0.585133	
	0.604046	
	0.608816	
	0.607500	
	0.605362	
	0.600264	
	0.597303	
	0.590889	
	0.583489	
	0.572470	
	0.570003	
	0.574443	
	0.579377	
	0.588751	
	0.588751	
	0.578555	
	0.591383	
	0.607500	
	0.591383	
	0.444355	
	0.334002	
	0.565398	
	0.622301	
	0.657332	
	0.672791	
	0.692033	
	0.707821	
	0.720978	
	0.724432	
	0.716208	
	0.704532	
	0.690717	
	0.672791	
	0.656016	
	0.609802	
	0.549116	
	0.289926	
	0.264764	
	0.225951	
	0.187632	
	0.155068	
	0.145530	
	0.152766	
	0.219373	
	0.248647	
	0.285486	
	0.307524	
	0.279894	
	0.255061	
	0.270027	
	0.311306	
	0.508495	
	0.613585	
	0.631182	
	0.593685	
	0.551254	
	0.495831	
	0.281045	
	0.254403	
	0.294860	
	0.561944	
	0.551912	
	0.543854	
	0.573457	
	0.635129	
	0.692197	
	0.712919	
	0.715880	
	0.694171	
	0.653384	
	0.638090	
	0.654700	
	0.665555	
	0.633978	
	0.574772	
	0.489417	
	0.249140	
	0.204571	
	0.188454	
	0.172501	0.166365
	0.169212	
	0.183027	
	0.196677	
	0.225622	
	0.272329	
	0.428073	
	0.560629	
	0.553557	
	0.457183	
	0.270027	
	0.215919	
	0.193388	
	0.181711	
	0.181547	
	0.177764	
	0.176942	
	0.188125	
	0.190263	
	0.182533	
	0.176777	
	0.174639	
	0.176777	
	0.168061	
	0.164607	
	0.164936	
	0.169870	
	0.199308	
	0.213288	
	0.212794	
	0.217892	
	0.237463	
	0.249304	
	0.283512	
	0.350941	
	0.516718	
	0.567043	
	0.591547	
	0.608158	
	0.622959	
	0.631018	
	0.633978	
	0.636116	
	0.628222	
	0.612763	
	0.601744	
	0.598126	
	0.605197	
	0.610625	
	0.599441	
	0.589080	
	0.585791	
	0.572141	
	0.549445	
	0.483990	
	0.305057	
	0.284170	
	0.285486	
	0.286144	
	0.294860	
	0.292393	
	0.277921	
	0.260652	
	0.265751	
	0.276605	
	0.299958	
	0.306208	
	0.297820	
	0.287295	
	0.285815	
	0.288282	
	0.293051	
	0.297327	
	0.324463	
	0.401266	
	0.549116	
	0.586120	
	0.590725	
	0.592205	
	0.585956	
	0.586613	
	0.586449	
	0.592041	
	0.594836	
	0.600099	
	0.601250	
	0.607171	
	0.606513	
	0.606842	
	0.606020	
	0.607829	
	0.591876	
	0.535137	
	0.391727	
	0.353408	
	0.348310	
	0.397319	
	0.535960	
	0.571648	
	0.626248	
	0.648122	0.187624
	0.658154	
	0.656838	
	0.640885	
	0.627071	
	0.619506	
	0.612927	
	0.628880	
	0.654371	
	0.658154	
	0.652069	
	0.639241	
	0.621972	
	0.601415	
	0.587929	
	0.314102	
	0.275125	
	0.287788	
	0.334002	
	0.509152	
	0.528230	
	0.597961	
	0.645490	
	0.658154	
	0.650589	
	0.649109	
	0.663417	
	0.683481	
	0.682001	
	0.666212	
	0.635294	
	0.601086	
	0.587271	
	0.544347	
	0.515402	
	0.464584	
	0.324956	
	0.330384	
	0.390741	
	0.299794	
	0.210327	
	0.181218	
	0.173488	
	0.162305	
	0.148490	
	0.148983	
	0.150464	
	0.247002	
	0.396332	
	0.591054	
	0.607664	
	0.624275	
	0.640392	
	0.630031	
	0.595988	
	0.548459	
	0.495667	
	0.366729	
	0.464912	
	0.263613	
	0.224142	
	0.219373	
	0.220359	
	0.253745	
	0.279730	
	0.312128	
	0.442710	
	0.547801	
	0.482510	
	0.334166	
	0.344363	
	0.325943	
	0.317391	
	0.300123	
	0.270520	
	0.258679	
	0.247824	
	0.228911	
	0.211150	
	0.203913	
	0.195855	
	0.189770	
	0.187303	
	0.187467	
	0.196842	
	0.202762	
	0.217892	
	0.225293	
	0.248482	
	0.313444	
	0.312622	
	0.320023	
	0.307524	
	0.328081	
	0.413930	
	0.546978	
	0.584640	
	0.583982	
	0.595988	
	0.625262	
	0.621644	0.109685
	0.599606	
	0.580857	
	0.577075	
	0.576252	
	0.587929	
	0.591547	
	0.575430	
	0.546978	
	0.551419	
	0.569016	
	0.561944	
	0.464255	
	0.332028	
	0.288282	
	0.278743	
	0.263284	
	0.267231	
	0.266244	
	0.267724	
	0.263613	
	0.258185	
	0.251607	
	0.249798	
	0.246344	
	0.247824	
	0.256047	
	0.260652	
	0.266244	
	0.272658	
	0.283677	
	0.301274	
	0.334495	
	0.392879	
	0.527901	
	0.570990	
	0.594836	
	0.598290	
	0.596317	
	0.589409	
	0.586613	
	0.594179	
	0.611611	
	0.620821	
	0.618683	
	0.606678	
	0.598455	
	0.560958	
	0.505699	
	0.413436	
	0.486950	
	0.477905	
	0.494186	
	0.532999	
	0.577404	
	0.607007	
	0.625426	
	0.650589	
	0.656674	
	0.665390	
	0.655522	
	0.648615	
	0.661936	
	0.681343	
	0.697789	
	0.674435	
	0.633649	
	0.605855	
	0.607664	
	0.599112	
	0.562438	
	0.556024	
	0.581022	
	0.582009	
	0.604046	
	0.637432	
	0.643517	
	0.631676	
	0.611118	
	0.597797	
	0.583489	
	0.362947	
	0.285486	
	0.314924	
	0.302261	
	0.288117	
	0.312128	
	0.315747	
	0.355875	
	0.526750	
	0.507343	
	0.568029	
	0.606349	
	0.634143	
	0.617039	
	0.555859	
	0.336633	
	0.273480	
	0.285979	
	0.256870	
	0.253745	0.193874
	0.309333	
	0.541058	
	0.265257	
	0.180889	
	0.150793	
	0.152108	
	0.153424	
	0.154575	
	0.155891	
	0.157371	
	0.158851	
	0.317556	
	0.539084	
	0.607171	
	0.655029	
	0.678547	
	0.683974	
	0.673942	
	0.621808	
	0.534808	
	0.306866	
	0.259008	
	0.262461	
	0.375610	
	0.576088	
	0.579871	
	0.542045	
	0.584311	
	0.638254	
	0.684303	
	0.678876	
	0.658483	
	0.654207	
	0.653713	
	0.597797	
	0.244206	
	0.178422	
	0.189934	
	0.232694	
	0.266408	
	0.358671	
	0.597797	
	0.618354	
	0.609638	
	0.585298	
	0.558326	
	0.458334	
	0.255061	
	0.188454	
	0.156055	
	0.152766	
	0.154082	
	0.155562	
	0.157042	
	0.158358	
	0.159180	
	0.199802	
	0.230720	
	0.252429	
	0.277756	
	0.316404	
	0.363934	
	0.499943	
	0.537933	
	0.550268	
	0.550432	
	0.542702	
	0.504054	
	0.472149	
	0.417877	
	0.447809	
	0.495831	
	0.469517	
	0.375446	
	0.344363	
	0.325943	
	0.315418	
	0.302754	
	0.302590	
	0.309168	
	0.314595	
	0.289597	
	0.258843	
	0.243384	
	0.235819	
	0.244206	
	0.258350	
	0.260817	
	0.269204	
	0.281210	
	0.298972	
	0.314924	
	0.343212	
	0.346336	
	0.323147	
	0.361302	
	0.486292	
	0.520500	
	0.561122	
	0.589409	0.160615
	0.583653	
	0.594343	
	0.611283	
	0.618683	
	0.629044	
	0.633485	
	0.648615	
	0.664732	
	0.682658	
	0.690717	
	0.681014	
	0.686606	
	0.693842	
	0.689895	
	0.683645	
	0.670982	
	0.662101	
	0.670159	
	0.677231	
	0.651740	
	0.574114	
	0.259666	
	0.206216	
	0.197006	
	0.183685	
	0.171021	
	0.171350	
	0.176942	
	0.197828	
	0.259172	
	0.368867	
	0.563096	
	0.605855	
	0.607993	
	0.587929	
	0.552899	
	0.421988	
	0.316733	
	0.287788	
	0.268711	
	0.279565	
	0.349461	
	0.549445	
	0.575266	
	0.455374	
	0.280716	
	0.285979	
	0.543196	
	0.625097	
	0.672133	
	0.712755	
	0.723280	
	0.715222	
	0.721471	
	0.738082	
	0.749101	
	0.752719	
	0.709301	
	0.636445	
	0.510304	
	0.262955	
	0.214110	
	0.196513	
	0.208847	
	0.200460	
	0.208518	
	0.235325	
	0.343212	
	0.578719	
	0.622795	
	0.656016	
	0.633978	
	0.426100	
	0.196842	
	0.149148	
	0.143885	
	0.145036	
	0.146188	
	0.148161	
	0.149477	
	0.151121	
	0.259172	
	0.286144	
	0.238615	
	0.232036	
	0.263119	
	0.280881	
	0.291900	
	0.293215	
	0.318378	
	0.534315	
	0.590560	
	0.635458	
	0.654700	
	0.649602	
	0.620328	
	0.577239	
	0.518856	
	0.322490	
	0.232529	0.115151
	0.195690	
	0.187632	
	0.179738	
	0.176119	
	0.179902	
	0.197170	
	0.204900	
	0.201940	
	0.210656	
	0.217892	
	0.247824	
	0.279236	
	0.318542	
	0.427744	
	0.373801	
	0.320680	
	0.312951	
	0.313280	
	0.327423	
	0.377584	
	0.513757	
	0.540400	
	0.560958	
	0.587271	
	0.591712	
	0.590889	
	0.578390	
	0.568194	
	0.548952	
	0.535137	
	0.524118	
	0.508495	
	0.515237	
	0.506357	
	0.512277	
	0.523461	
	0.495667	
	0.383176	
	0.359000	
	0.335317	
	0.315253	
	0.298643	
	0.282032	
	0.277756	
	0.293051	
	0.315747	
	0.305386	
	0.302096	
	0.311142	
	0.303905	
	0.315582	
	0.323476	
	0.330055	
	0.327917	
	0.330055	
	0.353079	
	0.501094	
	0.561122	
	0.578390	
	0.583982	
	0.586613	
	0.580528	
	0.582831	
	0.586120	
	0.586778	
	0.585133	
	0.590396	
	0.587107	
	0.588422	
	0.600099	
	0.595001	
	0.590560	
	0.590396	
	0.601415	
	0.605691	
	0.586120	
	0.580528	
	0.585133	
	0.576910	
	0.533657	
	0.503232	
	0.388109	
	0.523132	
	0.614243	
	0.636774	
	0.616216	
	0.605855	
	0.620328	
	0.618354	
	0.613749	
	0.583489	
	0.600593	
	0.632334	
	0.644010	
	0.657167	
	0.646971	
	0.601415	
	0.634307	
	0.656180	
	0.665390	0.153232
	0.656509	
	0.645161	
	0.630031	
	0.597632	
	0.375610	
	0.264106	
	0.239930	
	0.237628	
	0.251114	
	0.264599	
	0.299794	
	0.416890	
	0.519185	
	0.366565	
	0.301932	
	0.482839	
	0.594672	
	0.608651	
	0.618025	
	0.626742	
	0.615559	
	0.631676	
	0.591383	
	0.268875	
	0.207696	
	0.215919	
	0.267066	
	0.284992	
	0.295847	
	0.297163	
	0.230720	
	0.199802	
	0.209341	
	0.237792	
	0.269040	
	0.556846	
	0.623453	
	0.636116	
	0.630031	
	0.574608	
	0.567372	
	0.527736	
	0.563753	
	0.624110	
	0.601086	
	0.556682	
	0.532341	
	0.524612	
	0.577075	
	0.617203	
	0.643352	
	0.657825	
	0.671475	
	0.659798	
	0.613914	
	0.376762	
	0.233352	
	0.193552	
	0.196348	
	0.204407	
	0.181382	
	0.169870	
	0.168719	
	0.172666	
	0.159344	
	0.156713	
	0.157371	
	0.158687	
	0.160167	
	0.161647	
	0.195526	
	0.226773	
	0.238615	
	0.225458	
	0.203913	
	0.203749	
	0.204736	
	0.204900	
	0.212136	
	0.228254	
	0.260981	
	0.303412	
	0.385478	
	0.500107	
	0.560300	
	0.623617	
	0.641543	
	0.641379	
	0.637432	
	0.633978	
	0.627235	
	0.603060	
	0.584311	
	0.514251	
	0.368210	
	0.337949	
	0.291571	
	0.260488	
	0.232036	
	0.224964	0.153170
	0.230556	
	0.237463	
	0.241904	
	0.264270	
	0.263448	
	0.269533	
	0.266573	
	0.272987	
	0.296669	
	0.383998	
	0.533164	
	0.579706	
	0.586449	
	0.579542	
	0.575266	
	0.579706	
	0.591876	
	0.599112	
	0.607171	
	0.627893	
	0.639405	
	0.639899	
	0.641050	
	0.637596	
	0.627235	
	0.619177	
	0.621315	
	0.612105	
	0.585791	
	0.526750	
	0.386629	
	0.317885	
	0.309497	
	0.304563	
	0.315089	
	0.409489	
	0.568194	
	0.629209	
	0.627564	
	0.581515	
	0.334495	
	0.270355	
	0.200789	
	0.172337	
	0.168883	
	0.186809	
	0.414916	
	0.669337	
	0.714235	
	0.736437	
	0.747785	
	0.745647	
	0.738740	
	0.720320	
	0.711110	
	0.719169	
	0.715222	
	0.714893	
	0.695158	
	0.618683	
	0.483661	
	0.352586	
	0.363440	
	0.287130	
	0.284170	
	0.305550	
	0.304728	
	0.319036	
	0.279401	
	0.223320	
	0.187138	
	0.186480	
	0.273645	
	0.559642	
	0.555366	
	0.574443	
	0.537275	
	0.483825	
	0.438763	
	0.309826	
	0.341074	
	0.573621	
	0.610789	
	0.597632	
	0.471820	
	0.384162	
	0.596152	
	0.638090	
	0.637267	
	0.565069	
	0.265751	
	0.200789	
	0.187303	
	0.184671	
	0.194539	
	0.244535	
	0.620328	
	0.697789	
	0.696144	
	0.669666	0.185473
	0.681672	
	0.681178	
	0.676080	
	0.651740	
	0.646642	
	0.647135	
	0.581351	
	0.238286	
	0.159016	
	0.141583	
	0.142405	
	0.143885	
	0.145859	
	0.147339	
	0.149477	
	0.151450	
	0.153095	
	0.154904	
	0.268711	
	0.560629	
	0.644668	
	0.678711	
	0.672133	
	0.646806	
	0.578061	
	0.335317	
	0.257856	
	0.282197	
	0.386629	
	0.514251	
	0.535466	
	0.328575	
	0.286966	
	0.379886	
	0.570496	
	0.533493	
	0.308839	
	0.283512	
	0.275125	
	0.239930	
	0.229734	
	0.256541	
	0.280716	
	0.252100	
	0.247660	
	0.365249	
	0.600264	
	0.622466	
	0.591547	
	0.476918	
	0.285486	
	0.257692	
	0.254238	
	0.255225	
	0.249469	
	0.237299	
	0.218550	
	0.209834	
	0.216412	
	0.217235	
	0.214439	
	0.208847	
	0.203749	
	0.201282	
	0.198486	
	0.204078	
	0.209341	
	0.213288	
	0.228089	
	0.246344	
	0.252265	
	0.256376	
	0.272165	
	0.345678	
	0.542538	
	0.581186	
	0.592205	
	0.580528	
	0.548294	
	0.526421	
	0.510139	
	0.532177	
	0.559148	
	0.585627	
	0.602731	
	0.615230	
	0.613749	
	0.601579	
	0.581022	
	0.560793	
	0.552241	
	0.550597	
	0.557339	
	0.547801	
	0.530039	
	0.475767	
	0.332686	
	0.312951	
	0.307688	
	0.315911	0.149372
	0.299958	
	0.262132	
	0.233516	
	0.238450	
	0.238615	
	0.236148	
	0.236970	
	0.279730	
	0.324956	
	0.296669	
	0.325943	
	0.556517	
	0.603060	
	0.642201	
	0.643681	
	0.629044	
	0.600428	
	0.558655	
	0.547965	
	0.570167	
	0.581351	
	0.603882	
	0.606842	
	0.617861	
	0.619341	
	0.626742	
	0.639570	
	0.663088	
	0.695815	
	0.709301	
	0.713577	
	0.709301	
	0.693513	
	0.684796	
	0.678383	
	0.673613	
	0.682330	
	0.694335	
	0.686934	
	0.649766	
	0.547965	
	0.235654	
	0.160825	
	0.149806	
	0.150957	
	0.152437	
	0.196513	
	0.239272	
	0.223649	
	0.219866	
	0.212301	
	0.216906	
	0.219537	
	0.253745	
	0.304070	
	0.537604	
	0.651246	
	0.679863	
	0.695158	
	0.684303	
	0.650424	
	0.637596	
	0.634800	
	0.625591	
	0.615065	
	0.627071	
	0.537111	
	0.358177	
	0.597303	
	0.642859	
	0.679534	
	0.694171	
	0.688250	
	0.659305	
	0.641708	
	0.591876	
	0.291900	
	0.233023	
	0.210821	
	0.178093	
	0.196348	
	0.226444	
	0.202433	
	0.196513	
	0.199473	
	0.189441	
	0.188947	
	0.200295	
	0.209341	
	0.246838	
	0.334166	
	0.559806	
	0.573292	
	0.507672	
	0.306537	
	0.314102	
	0.410805	
	0.590232	
	0.603882	
	0.616381	0.130898
	0.637761	
	0.632169	
	0.642201	
	0.654700	
	0.604869	
	0.534808	
	0.423304	
	0.308675	
	0.418041	
	0.591383	
	0.629702	
	0.561944	
	0.255554	
	0.236312	
	0.267066	
	0.247166	
	0.273151	
	0.343540	
	0.462939	
	0.477412	
	0.341731	
	0.291242	
	0.251442	
	0.255061	
	0.254896	
	0.291078	
	0.300123	
	0.300123	
	0.268382	
	0.212794	
	0.192401	
	0.193388	
	0.182533	
	0.163785	
	0.163127	
	0.185658	
	0.214932	
	0.236641	
	0.245357	
	0.260159	
	0.289926	
	0.473300	
	0.581186	
	0.549116	
	0.480043	
	0.305715	
	0.284828	
	0.284006	
	0.270355	
	0.264106	
	0.274960	
	0.292722	
	0.372321	
	0.547307	
	0.531684	
	0.508659	
	0.520336	
	0.383340	
	0.320023	
	0.316733	
	0.307688	
	0.278085	
	0.238121	
	0.219866	
	0.209176	
	0.211807	
	0.221017	
	0.188618	
	0.182698	
	0.197664	
	0.223813	
	0.260817	
	0.326108	
	0.520994	
	0.621315	
	0.662101	
	0.666377	
	0.662101	
	0.657332	
	0.656016	
	0.662101	
	0.667199	
	0.665226	
	0.658483	
	0.655358	
	0.676902	
	0.691868	
	0.694993	
	0.699269	
	0.697460	
	0.680027	
	0.644010	
	0.587765	
	0.315911	
	0.228254	
	0.177106	
	0.161976	
	0.187632	
	0.209669	
	0.219208	0.165022
	0.223484	
	0.222497	
	0.212465	
	0.219702	
	0.204242	
	0.196019	
	0.210821	
	0.243877	
	0.255061	
	0.283019	
	0.484154	
	0.623617	
	0.653384	
	0.668350	
	0.655851	
	0.647464	
	0.658976	
	0.676080	
	0.642037	
	0.532835	
	0.375117	
	0.535302	
	0.562931	
	0.531519	
	0.600593	
	0.638912	
	0.648286	
	0.625920	
	0.628880	
	0.644010	
	0.661772	
	0.690553	
	0.699433	
	0.690388	
	0.644010	
	0.612105	
	0.614572	
	0.629373	
	0.624275	
	0.535795	
	0.282854	
	0.321667	
	0.576088	
	0.568852	
	0.484483	
	0.561944	
	0.591218	
	0.626248	
	0.642201	
	0.642201	
	0.613256	
	0.566056	
	0.308510	
	0.246673	
	0.237463	
	0.237463	
	0.259008	
	0.233681	
	0.203749	
	0.187632	
	0.205558	
	0.251771	
	0.510139	
	0.625591	
	0.644668	
	0.622630	
	0.598290	
	0.579048	
	0.576088	
	0.571483	
	0.564082	
	0.526092	
	0.469846	
	0.307195	
	0.272493	
	0.278414	
	0.531190	
	0.522145	
	0.295518	
	0.259008	
	0.256047	
	0.231707	
	0.222991	
	0.167732	
	0.153917	
	0.155397	
	0.156878	
	0.158193	
	0.159673	
	0.672462	
	0.737917	
	0.756501	
	0.756501	
	0.724103	
	0.702229	
	0.694664	
	0.700585	
	0.712919	
	0.714235	
	0.702723	0.180871
	0.649766	
	0.549774	
	0.271342	
	0.260817	
	0.548952	
	0.621479	
	0.591876	
	0.459650	
	0.284335	
	0.284664	
	0.280059	
	0.218715	
	0.180724	
	0.184178	
	0.202433	
	0.230720	
	0.203584	
	0.163292	
	0.146845	
	0.148490	
	0.149970	
	0.151944	
	0.153917	
	0.154904	
	0.156384	
	0.157700	
	0.159180	
	0.160660	
	0.161647	
	0.169705	
	0.170857	
	0.173324	
	0.193388	
	0.235819	
	0.291078	
	0.388767	
	0.559477	
	0.590560	
	0.607007	
	0.613914	
	0.608322	
	0.596152	
	0.598619	
	0.596152	
	0.597139	
	0.597632	
	0.612927	
	0.617697	
	0.640392	
	0.648451	
	0.642366	
	0.620163	
	0.580693	
	0.516389	
	0.335811	
	0.309497	
	0.297163	
	0.288611	
	0.254896	
	0.222497	
	0.208518	
	0.206545	
	0.207860	
	0.222826	
	0.230885	
	0.234010	
	0.226280	
	0.235161	
	0.258350	
	0.269862	
	0.301110	
	0.505863	
	0.540729	
	0.570003	
	0.566385	
	0.441066	
	0.560958	
	0.628058	
	0.652398	
	0.653878	
	0.656345	
	0.607500	
	0.538426	
	0.310155	
	0.245029	
	0.223484	
	0.197993	
	0.208518	
	0.308346	
	0.647628	
	0.683974	
	0.670488	
	0.656509	
	0.631840	
	0.588094	
	0.548294	
	0.336304	
	0.266573	
	0.237134	
	0.225458	0.168156
	0.226444	
	0.243219	
	0.266079	
	0.301110	
	0.388438	
	0.548459	
	0.577733	
	0.585298	
	0.597632	
	0.611611	
	0.617203	
	0.635623	
	0.638254	
	0.638747	
	0.632498	
	0.630360	
	0.633485	
	0.621808	
	0.570825	
	0.553557	
	0.585133	
	0.608651	
	0.637103	
	0.652562	
	0.668844	
	0.671804	
	0.668679	
	0.664732	
	0.664568	
	0.691210	
	0.729530	
	0.702394	
	0.634800	
	0.579706	
	0.486621	
	0.476918	
	0.556517	
	0.576746	
	0.585462	
	0.627235	
	0.672133	
	0.660292	
	0.613256	
	0.618683	
	0.632991	
	0.606678	
	0.366565	
	0.244864	
	0.220359	
	0.217564	
	0.178422	
	0.154246	
	0.145694	
	0.146352	
	0.180067	
	0.188783	
	0.189441	
	0.194868	
	0.205393	
	0.224306	
	0.282526	
	0.579542	
	0.609967	
	0.591712	
	0.492871	
	0.274631	
	0.218386	
	0.199637	
	0.181053	
	0.179080	
	0.180724	
	0.184343	
	0.211807	
	0.249304	
	0.374788	
	0.536946	
	0.412121	
	0.263941	
	0.215097	
	0.193881	
	0.192237	
	0.193059	
	0.204078	
	0.244864	
	0.498627	
	0.638254	
	0.642201	
	0.601908	
	0.536946	
	0.370183	
	0.361467	
	0.528394	
	0.589080	
	0.647135	
	0.650753	
	0.648122	
	0.672955	
	0.688415	
	0.700420	
	0.697131	0.212147
	0.673120	
	0.661936	
	0.673942	
	0.670817	
	0.652069	
	0.626413	
	0.622959	
	0.644997	
	0.661443	
	0.669173	
	0.674107	
	0.628386	
	0.553557	
	0.290584	
	0.214932	
	0.206380	
	0.194539	
	0.211150	
	0.239272	
	0.226116	
	0.175133	
	0.169870	
	0.196348	
	0.196348	
	0.231214	
	0.267724	
	0.356204	
	0.497311	
	0.396332	
	0.338442	
	0.298972	
	0.351764	
	0.562438	
	0.347159	
	0.245193	
	0.214439	
	0.220195	
	0.222333	
	0.211643	
	0.202598	
	0.191250	
	0.215426	
	0.279236	
	0.350283	
	0.270191	
	0.173324	
	0.162305	
	0.164278	
	0.165758	
	0.252594	
	0.307195	
	0.326930	
	0.534973	
	0.605855	
	0.626906	
	0.626084	
	0.609638	
	0.587765	
	0.600593	
	0.622630	
	0.594508	
	0.495338	
	0.311306	
	0.264764	
	0.232858	
	0.218057	
	0.197828	
	0.176613	
	0.176284	
	0.198157	
	0.228418	
	0.260323	
	0.294860	
	0.347488	
	0.391563	
	0.518033	
	0.559642	
	0.559971	
	0.570332	
	0.564576	
	0.563260	
	0.565562	
	0.589409	
	0.588751	
	0.599441	
	0.610789	
	0.629209	
	0.633320	
	0.617697	
	0.587929	
	0.582173	
	0.587107	
	0.607993	
	0.619341	
	0.617697	
	0.602566	
	0.562109	
	0.524941	
	0.432185	
	0.300945	0.171092
	0.242726	
	0.226773	
	0.220688	
	0.223813	
	0.243877	
	0.264599	
	0.273480	
	0.330055	
	0.493529	
	0.564411	
	0.589409	
	0.608651	
	0.615065	
	0.610954	
	0.579542	
	0.551090	
	0.612598	
	0.656509	
	0.692691	
	0.696473	
	0.675587	
	0.671311	
	0.675422	
	0.677889	
	0.664074	
	0.644339	
	0.657660	
	0.684468	
	0.695980	
	0.685290	
	0.673449	
	0.655851	
	0.643517	
	0.638583	
	0.640885	
	0.557833	
	0.246673	
	0.180067	
	0.152437	
	0.153753	
	0.159838	
	0.206709	
	0.431527	
	0.618683	
	0.655194	
	0.676738	
	0.686606	
	0.715715	
	0.730517	
	0.721471	
	0.688744	
	0.596481	
	0.265915	
	0.230885	
	0.204242	
	0.165101	
	0.144214	
	0.145036	
	0.146517	
	0.148161	
	0.192566	
	0.180395	
	0.205558	
	0.266737	
	0.289597	
	0.256705	
	0.309662	
	0.562931	
	0.600922	
	0.611940	
	0.631347	
	0.682494	
	0.714564	
	0.738575	
	0.737424	
	0.729530	
	0.686277	
	0.586613	
	0.402911	
	0.305879	
	0.443697	
	0.325450	
	0.258021	
	0.529052	
	0.603060	
	0.549774	
	0.267889	
	0.224635	
	0.194539	
	0.154411	
	0.146681	
	0.147997	
	0.149312	
	0.150464	
	0.151944	
	0.153424	
	0.154082	
	0.155726	
	0.157042	
	0.159016	0.175018
	0.259830	
	0.343212	
	0.517704	
	0.584804	
	0.631347	
	0.666212	
	0.685948	
	0.653549	
	0.553228	
	0.272000	
	0.236970	
	0.219208	
	0.219208	
	0.222333	
	0.241246	
	0.309333	
	0.565234	
	0.641708	
	0.661443	
	0.655851	
	0.648286	
	0.649931	
	0.626248	
	0.509810	
	0.246838	
	0.180724	
	0.159180	
	0.160496	
	0.161482	
	0.162798	
	0.164278	
	0.165265	
	0.314924	
	0.579871	
	0.623288	
	0.630853	
	0.624275	
	0.593850	
	0.537440	
	0.296669	
	0.246838	
	0.221182	
	0.219537	
	0.240424	
	0.276441	
	0.326765	
	0.446657	
	0.530039	
	0.570825	
	0.564905	
	0.539413	
	0.449453	
	0.348145	
	0.307195	
	0.306866	
	0.331864	
	0.301110	
	0.304563	
	0.312293	
	0.317720	
	0.296834	
	0.312786	
	0.346007	
	0.355053	
	0.302590	
	0.282854	
	0.282032	
	0.292887	
	0.313280	
	0.330384	
	0.352750	
	0.371005	
	0.381531	
	0.435310	
	0.374295	
	0.347981	
	0.462939	
	0.532835	
	0.571483	
	0.598455	
	0.604704	
	0.592205	
	0.591876	
	0.587600	
	0.593850	
	0.597303	
	0.591218	
	0.595659	
	0.594672	
	0.586285	
	0.581022	
	0.557339	
	0.541058	
	0.538755	
	0.572141	
	0.586613	
	0.586778	
	0.585627	
	0.591712	
	0.573457	0.196506
	0.582831	
	0.594508	
	0.597632	
	0.608322	
	0.641379	
	0.658154	
	0.664074	
	0.686606	
	0.709466	
	0.687428	
	0.566878	
	0.228582	
	0.186645	
	0.180231	
	0.183520	
	0.195690	
	0.235983	
	0.549939	
	0.670982	
	0.704203	
	0.728708	
	0.732326	
	0.730352	
	0.734299	
	0.723774	
	0.688579	
	0.628058	
	0.563918	
	0.553392	
	0.444190	
	0.272165	
	0.209176	
	0.176777	
	0.177106	
	0.192237	
	0.322983	
	0.624768	
	0.661936	
	0.605691	
	0.440737	
	0.296669	
	0.265751	
	0.203913	
	0.185987	
	0.200460	
	0.200295	
	0.198157	
	0.257856	
	0.487444	
	0.543196	
	0.361631	
	0.235983	
	0.194375	
	0.162305	
	0.157206	
	0.158029	
	0.158851	
	0.160496	
	0.161647	
	0.263777	
	0.414259	
	0.614736	
	0.643846	
	0.663417	
	0.654371	
	0.624933	
	0.608322	
	0.500929	
	0.282854	
	0.281703	
	0.290584	
	0.326601	
	0.546978	
	0.572963	
	0.601086	
	0.583818	
	0.587600	
	0.560300	
	0.350119	
	0.282197	
	0.243877	
	0.224142	
	0.213123	
	0.241081	
	0.299136	
	0.549939	
	0.595494	
	0.583982	
	0.479221	
	0.298314	
	0.266573	
	0.218221	
	0.181711	
	0.169870	
	0.171021	
	0.189605	
	0.227102	
	0.261803	
	0.279565	
	0.322654	0.124535
	0.476096	
	0.367716	
	0.380380	
	0.388438	
	0.303577	
	0.338442	
	0.359329	
	0.306537	
	0.275125	
	0.274138	
	0.299301	
	0.365578	
	0.520336	
	0.580857	
	0.600593	
	0.599112	
	0.594836	
	0.595330	
	0.582502	
	0.543854	
	0.364591	
	0.309990	
	0.278743	
	0.254896	
	0.250620	
	0.251442	
	0.256705	
	0.298149	
	0.448137	
	0.561780	
	0.556353	
	0.523461	
	0.503890	
	0.486457	
	0.377255	
	0.337455	
	0.321174	
	0.328246	
	0.425277	
	0.560793	
	0.560300	
	0.530697	
	0.555695	
	0.579048	
	0.595988	
	0.612105	
	0.613749	
	0.616545	
	0.597632	
	0.554544	
	0.487608	
	0.353244	
	0.328410	
	0.328903	
	0.318871	
	0.291900	
	0.265915	
	0.261310	
	0.282854	
	0.312457	
	0.336633	
	0.372650	
	0.535960	
	0.534973	
	0.454551	
	0.374788	
	0.391563	
	0.527079	
	0.594343	
	0.623124	
	0.624768	
	0.634636	
	0.656180	
	0.677560	
	0.694006	
	0.704861	
	0.710288	
	0.691375	
	0.667693	
	0.628880	
	0.542867	
	0.262955	
	0.260981	
	0.347488	
	0.570661	
	0.585627	
	0.603553	
	0.611283	
	0.584475	
	0.539742	
	0.593521	
	0.678054	
	0.709301	
	0.694171	
	0.685125	
	0.675751	
	0.671475	
	0.663746	
	0.649273	
	0.627893	0.182808
	0.297985	
	0.196513	
	0.189934	
	0.201611	
	0.220359	
	0.246015	
	0.239766	
	0.272329	
	0.532835	
	0.592041	
	0.602073	
	0.631511	
	0.663088	
	0.685948	
	0.672955	
	0.612434	
	0.546321	
	0.423797	
	0.282197	
	0.275783	
	0.231543	
	0.204078	
	0.258843	
	0.320845	
	0.318871	
	0.284828	
	0.281210	
	0.298478	
	0.372486	
	0.578390	
	0.581351	
	0.500600	
	0.234174	
	0.186480	
	0.155233	
	0.154575	
	0.156220	
	0.157864	
	0.159344	
	0.160989	
	0.173488	
	0.357684	
	0.582666	
	0.619506	
	0.601579	
	0.489253	
	0.241575	
	0.190428	
	0.165758	
	0.164772	
	0.166416	
	0.167568	
	0.169048	
	0.178915	
	0.245193	
	0.284992	
	0.434323	
	0.519513	
	0.510139	
	0.503232	
	0.519678	
	0.557010	
	0.575430	
	0.587271	
	0.573621	
	0.560793	
	0.561286	
	0.571154	
	0.579213	
	0.565234	
	0.514909	
	0.328410	
	0.286308	
	0.302096	
	0.337127	
	0.438270	
	0.462610	
	0.276276	
	0.276441	
	0.313938	
	0.323641	
	0.316569	
	0.335646	
	0.307853	
	0.322654	
	0.360973	
	0.550103	
	0.584804	
	0.599770	
	0.599277	
	0.565562	
	0.539413	
	0.499120	
	0.378900	
	0.289926	
	0.262132	
	0.273974	
	0.277921	
	0.280716	
	0.280881	0.161615
	0.272822	
	0.273645	
	0.311306	
	0.531684	
	0.582009	
	0.599112	
	0.605855	
	0.622795	
	0.628386	
	0.610296	
	0.588422	
	0.572634	
	0.563260	
	0.559971	
	0.550925	
	0.521651	
	0.453729	
	0.448960	
	0.497147	
	0.537275	
	0.571483	
	0.602566	
	0.610460	
	0.583160	
	0.555366	
	0.560300	
	0.529217	
	0.539413	
	0.567372	
	0.565398	
	0.400279	
	0.293873	
	0.279236	
	0.292887	
	0.336140	
	0.468695	
	0.569181	
	0.618848	
	0.667035	
	0.691868	
	0.705354	
	0.706341	
	0.698940	
	0.683974	
	0.675751	
	0.663252	
	0.637103	
	0.592698	
	0.310977	
	0.233352	
	0.211972	
	0.217070	
	0.240753	
	0.273645	
	0.380215	
	0.503725	
	0.434323	
	0.515402	
	0.615065	
	0.645655	
	0.653384	
	0.660292	
	0.663746	
	0.651082	
	0.622795	
	0.561780	
	0.353902	
	0.304563	
	0.368867	
	0.447151	
	0.247166	
	0.181053	
	0.157535	
	0.156384	
	0.157700	
	0.158687	
	0.159673	
	0.161154	
	0.162469	
	0.228747	
	0.216248	
	0.225951	
	0.228089	
	0.246180	
	0.293873	
	0.502410	
	0.573292	
	0.608816	
	0.624768	
	0.611447	
	0.579706	
	0.387123	
	0.259830	
	0.288282	
	0.292229	
	0.283348	
	0.282197	
	0.306043	
	0.525270	
	0.565891	0.122091
	0.550268	
	0.546321	
	0.542702	
	0.494022	
	0.559313	
	0.634307	
	0.636281	
	0.595165	
	0.467050	
	0.280223	
	0.240259	
	0.263613	
	0.295353	
	0.308510	
	0.507179	
	0.559806	
	0.588916	
	0.611447	
	0.623453	
	0.600099	
	0.566714	
	0.593356	
	0.579213	
	0.489746	
	0.344034	
	0.293215	
	0.260652	
	0.253252	
	0.252265	
	0.255554	
	0.244042	
	0.231872	
	0.224142	
	0.223320	
	0.231049	
	0.251442	
	0.286144	
	0.352421	
	0.300287	
	0.272329	
	0.266902	
	0.275289	
	0.292229	
	0.284664	
	0.270849	
	0.259994	
	0.255883	
	0.270027	
	0.275783	
	0.266902	
	0.263284	
	0.266408	
	0.274467	
	0.303741	
	0.357191	
	0.496324	
	0.518691	
	0.530532	
	0.508330	
	0.504712	
	0.529874	
	0.560464	
	0.581022	
	0.608158	
	0.618519	
	0.633978	
	0.635129	
	0.638583	
	0.644339	
	0.639734	
	0.625426	
	0.614078	
	0.608487	
	0.610625	
	0.615559	
	0.620328	
	0.617368	
	0.609473	
	0.608816	
	0.602731	
	0.598619	
	0.609145	
	0.624275	
	0.607829	
	0.601579	
	0.595659	
	0.628715	
	0.629867	
	0.589245	
	0.319036	
	0.243713	
	0.217235	
	0.199473	
	0.187796	
	0.190756	
	0.192894	
	0.221675	
	0.267395	
	0.321338	
	0.441230	0.194025
	0.554708	
	0.585133	
	0.557010	
	0.406693	
	0.323147	
	0.351435	
	0.407845	
	0.421988	
	0.415081	
	0.403404	
	0.479221	
	0.516224	
	0.506686	
	0.532506	
	0.540400	
	0.519185	
	0.400444	
	0.368045	
	0.336962	
	0.316076	
	0.291242	
	0.273974	
	0.266737	
	0.266573	
	0.273480	
	0.281045	
	0.282197	
	0.284170	
	0.277098	
	0.304563	
	0.547636	
	0.619012	
	0.648122	
	0.669831	
	0.706012	
	0.711110	
	0.690717	
	0.662430	
	0.666048	
	0.691210	
	0.675587	
	0.658812	
	0.644504	
	0.631182	
	0.626248	
	0.636116	
	0.618848	
	0.589903	
	0.558984	
	0.548459	
	0.347323	
	0.308839	
	0.311471	
	0.339922	
	0.550432	
	0.541551	
	0.439750	
	0.280223	
	0.288775	
	0.305715	
	0.313609	
	0.432349	
	0.559971	
	0.557504	
	0.603553	
	0.628880	
	0.613256	
	0.510468	
	0.247660	
	0.178751	
	0.167239	
	0.190099	
	0.241246	
	0.614736	
	0.702394	
	0.729201	
	0.723280	
	0.702394	
	0.712590	
	0.721471	
	0.713906	
	0.698611	
	0.653549	
	0.388767	
	0.265915	
	0.298478	
	0.243877	
	0.181711	
	0.158522	
	0.152931	
	0.149312	
	0.150135	
	0.151779	
	0.153259	
	0.155397	
	0.156878	
	0.158687	
	0.160331	
	0.162140	
	0.163785	0.115673
	0.165594	
	0.167403	
	0.201117	
	0.231049	
	0.262955	
	0.266244	
	0.261968	
	0.254567	
	0.251114	
	0.266244	
	0.271507	
	0.251442	
	0.238121	
	0.248153	
	0.258514	
	0.250456	
	0.231707	
	0.237792	
	0.258185	
	0.294367	
	0.342225	
	0.385807	
	0.441559	
	0.514580	
	0.546156	
	0.573621	
	0.589409	
	0.599441	
	0.592041	
	0.580199	
	0.572141	
	0.562767	
	0.538262	
	0.518033	
	0.448137	
	0.414916	
	0.392385	
	0.356368	
	0.328081	
	0.314102	
	0.314431	
	0.304728	
	0.302919	
	0.284335	
	0.285650	
	0.284664	
	0.297820	
	0.317227	
	0.328246	
	0.356862	
	0.360809	
	0.354230	
	0.353573	
	0.364263	
	0.461130	
	0.543360	
	0.572799	
	0.591876	
	0.599770	
	0.606020	
	0.614572	
	0.628222	
	0.639241	
	0.644997	
	0.632005	
	0.620821	
	0.599770	
	0.583160	
	0.563096	
	0.536946	
	0.520500	
	0.529546	
	0.523296	
	0.515402	
	0.495502	
	0.447315	
	0.364756	
	0.309004	
	0.288282	
	0.278578	
	0.282361	
	0.284499	
	0.284170	
	0.266244	
	0.270520	
	0.270520	
	0.284499	
	0.290091	
	0.301932	
	0.319365	
	0.388767	
	0.543854	
	0.577075	
	0.592534	
	0.598784	
	0.625262	
	0.659305	
	0.676245	
	0.669995	
	0.660950	0.141464
	0.649931	
	0.641543	
	0.612105	
	0.599935	
	0.626742	
	0.674764	
	0.722622	
	0.755021	
	0.735944	
	0.692691	
	0.655194	
	0.615394	
	0.573950	
	0.511784	
	0.541551	
	0.605033	
	0.625097	
	0.652069	
	0.689401	
	0.708314	
	0.734135	
	0.726734	
	0.669173	
	0.318378	
	0.181547	
	0.146845	
	0.147832	
	0.149312	
	0.151121	
	0.152437	
	0.153753	
	0.155068	
	0.156384	
	0.190921	
	0.267889	
	0.332851	
	0.386629	
	0.252923	
	0.212630	
	0.243877	
	0.345350	
	0.616216	
	0.651740	
	0.683645	
	0.726241	
	0.769165	
	0.765547	
	0.744825	
	0.693020	
	0.644175	
	0.631840	
	0.653549	
	0.654042	
	0.651904	
	0.626577	
	0.615559	
	0.619012	
	0.562931	
	0.291242	
	0.261146	
	0.234667	
	0.183520	
	0.145365	
	0.146517	
	0.147832	
	0.149477	
	0.150793	
	0.152273	
	0.153917	
	0.155068	
	0.156384	
	0.157700	
	0.158851	
	0.160002	
	0.161482	
	0.163949	
	0.204078	
	0.224142	
	0.240588	
	0.255225	
	0.284006	
	0.324792	
	0.364263	
	0.487115	
	0.507672	
	0.544018	
	0.554050	
	0.558162	
	0.549116	
	0.520336	
	0.430540	
	0.395181	
	0.395675	
	0.385313	
	0.347488	
	0.318214	
	0.280716	
	0.251936	
	0.235654	
	0.227596	0.101842
	0.237299	
	0.236805	
	0.244700	
	0.236312	
	0.233516	
	0.228089	
	0.233352	
	0.241904	
	0.248482	
	0.258679	
	0.283512	
	0.300781	
	0.327752	
	0.366236	
	0.428238	
	0.486128	
	0.524118	
	0.557010	
	0.565398	
	0.579542	
	0.582831	
	0.596810	
	0.612434	
	0.627235	
	0.621479	
	0.615394	
	0.610954	
	0.610789	
	0.607171	
	0.603553	
	0.593356	
	0.575923	
	0.546814	
	0.526750	
	0.477740	
	0.476425	
	0.460637	
	0.400773	
	0.405542	
	0.358506	
	0.330384	
	0.299136	
	0.287130	
	0.264270	
	0.269369	
	0.263613	
	0.268053	
	0.265257	
	0.267066	
	0.274467	
	0.286802	
	0.294367	
	0.319529	
	0.330548	
	0.361138	
	0.421330	
	0.482345	
	0.538426	
	0.546978	
	0.567207	
	0.572305	
	0.578884	
	0.585956	
	0.595001	
	0.590889	
	0.597961	
	0.597961	
	0.595330	
	0.588916	
	0.585627	
	0.575430	
	0.572963	
	0.559148	
	0.545005	
	0.525763	
	0.500600	
	0.459156	
	0.337784	
	0.320680	
	0.301603	
	0.296998	
	0.285815	
	0.277921	
	0.270684	
	0.283183	
	0.286637	
	0.310319	
	0.360151	
	0.436954	
	0.539413	
	0.577733	
	0.596810	
	0.613256	
	0.621972	
	0.635623	
	0.635623	
	0.636938	
	0.639241	
	0.635129	
	0.622301	0.147268
	0.613585	
	0.596974	
	0.585956	
	0.579871	
	0.532177	
	0.436461	
	0.384985	
	0.510633	
	0.547307	
	0.605691	
	0.647957	
	0.666870	
	0.648615	
	0.631182	
	0.624768	
	0.645984	
	0.657003	
	0.650753	
	0.632827	
	0.625262	
	0.616052	
	0.615065	
	0.586285	
	0.301603	
	0.231214	
	0.199802	
	0.178751	
	0.162469	
	0.161318	
	0.162469	
	0.163620	
	0.165101	
	0.209176	
	0.321338	
	0.437283	
	0.416890	
	0.443368	
	0.587765	
	0.613421	
	0.562931	
	0.318378	
	0.237134	
	0.206874	
	0.208189	
	0.224635	
	0.276276	
	0.582173	
	0.681343	
	0.712919	
	0.725583	
	0.712919	
	0.704861	
	0.695158	
	0.656838	
	0.608816	
	0.587765	
	0.572963	
	0.520336	
	0.335975	
	0.274138	
	0.265915	
	0.280552	
	0.402746	
	0.607664	
	0.621315	
	0.588916	
	0.541222	
	0.479221	
	0.484977	
	0.515073	
	0.375281	
	0.239437	
	0.218221	
	0.197993	
	0.171186	
	0.160002	
	0.161318	
	0.162305	
	0.163127	
	0.164936	
	0.213123	
	0.248482	
	0.303248	
	0.334824	
	0.308839	
	0.374952	
	0.515895	
	0.592041	
	0.594343	
	0.525270	
	0.340251	
	0.307195	
	0.293544	
	0.288611	
	0.288775	
	0.267889	
	0.255225	
	0.229405	
	0.219044	
	0.208683	0.120995
	0.203091	
	0.205229	
	0.214110	
	0.214603	
	0.214603	
	0.212959	
	0.222826	
	0.248153	
	0.266079	
	0.275125	
	0.302425	
	0.353902	
	0.523296	
	0.559148	
	0.577075	
	0.588422	
	0.588587	
	0.595165	
	0.595001	
	0.600264	
	0.601086	
	0.603882	
	0.606020	
	0.615723	
	0.612927	
	0.619999	
	0.617697	
	0.618190	
	0.618683	
	0.617203	
	0.610789	
	0.607829	
	0.600593	
	0.592370	
	0.575101	
	0.556188	
	0.534644	
	0.451591	
	0.360644	
	0.313115	
	0.284006	
	0.267724	
	0.275783	
	0.277592	
	0.287624	
	0.279236	
	0.285650	
	0.297985	
	0.311142	
	0.339593	
	0.390741	
	0.401595	
	0.459156	
	0.468531	
	0.517211	
	0.526092	
	0.541880	
	0.566220	
	0.568358	
	0.579542	
	0.592698	
	0.607335	
	0.610625	
	0.610460	
	0.608816	
	0.616710	
	0.620821	
	0.624275	
	0.626413	
	0.624275	
	0.614572	
	0.604375	
	0.589903	
	0.573457	
	0.531848	
	0.389096	
	0.314924	
	0.287295	
	0.280716	
	0.278085	
	0.276112	
	0.272987	
	0.274138	
	0.265751	
	0.258843	
	0.259666	
	0.267889	
	0.275947	
	0.285321	
	0.291571	
	0.307524	
	0.316898	
	0.339429	
	0.373637	
	0.447315	
	0.485963	
	0.494844	
	0.530532	
	0.542867	
	0.568194	0.150403
	0.574772	
	0.580035	
	0.592205	
	0.599112	
	0.597303	
	0.600757	
	0.607007	
	0.614572	
	0.614572	
	0.611283	
	0.607664	
	0.606842	
	0.599935	
	0.585791	
	0.552899	
	0.506850	
	0.468695	
	0.433829	
	0.394523	
	0.421659	
	0.480372	
	0.449782	
	0.459814	
	0.402582	
	0.348968	
	0.325614	
	0.395346	
	0.531684	
	0.537111	
	0.503725	
	0.330713	
	0.272493	
	0.255061	
	0.280223	
	0.338113	
	0.366401	
	0.387616	
	0.500765	
	0.489253	
	0.411627	
	0.488101	
	0.579871	
	0.612269	
	0.639734	
	0.658483	
	0.652233	
	0.636609	
	0.614243	
	0.600757	
	0.572963	
	0.540729	
	0.520829	
	0.543689	
	0.558491	
	0.571319	
	0.582995	
	0.545005	
	0.328410	
	0.289433	
	0.247002	
	0.218386	
	0.207860	
	0.225458	
	0.272987	
	0.407680	
	0.585956	
	0.610296	
	0.599112	
	0.575101	
	0.592863	
	0.654536	
	0.707657	
	0.732161	
	0.707492	
	0.685125	
	0.691539	
	0.698118	
	0.687099	
	0.670159	
	0.660785	
	0.654700	
	0.628880	
	0.600264	
	0.519842	
	0.329232	
	0.309826	
	0.266902	
	0.237957	
	0.242891	
	0.227596	
	0.217235	
	0.220853	
	0.200460	
	0.182862	
	0.166745	
	0.165758	
	0.165101	
	0.161154	
	0.161647	
	0.167732	0.159730
	0.178586	
	0.188454	
	0.197664	
	0.201282	
	0.205229	
	0.204242	
	0.209669	
	0.223155	
	0.237463	
	0.246344	
	0.257528	
	0.264270	
	0.296505	
	0.307359	
	0.326437	
	0.347488	
	0.451756	
	0.523789	
	0.543360	
	0.562109	
	0.574443	
	0.585956	
	0.593192	
	0.591876	
	0.590725	
	0.579706	
	0.560958	
	0.537275	
	0.529546	
	0.581515	
	0.605362	
	0.609967	
	0.589574	
	0.579048	
	0.568687	
	0.503067	
	0.323147	
	0.267889	
	0.260817	
	0.259008	
	0.272658	
	0.296505	
	0.321174	
	0.324792	
	0.431198	
	0.574114	
	0.586778	
	0.572305	
	0.547307	
	0.539578	
	0.535466	
	0.473464	
	0.330384	
	0.296505	
	0.269204	
	0.257034	
	0.260981	
	0.304399	
	0.499449	
	0.568358	
	0.576581	
	0.579048	
	0.583489	
	0.595165	
	0.593192	
	0.589738	
	0.597797	
	0.614901	
	0.610625	
	0.575923	
	0.438928	
	0.285650	
	0.259172	
	0.248482	
	0.257034	
	0.288611	
	0.363440	
	0.558491	
	0.625426	
	0.661443	
	0.681178	
	0.682165	
	0.670159	
	0.656509	
	0.642695	
	0.622959	
	0.591712	
	0.529546	
	0.372321	
	0.334495	
	0.317062	
	0.311306	
	0.313444	
	0.332851	
	0.433500	
	0.539249	
	0.530861	
	0.550597	
	0.564411	
	0.579706	0.168273
	0.616545	
	0.645490	
	0.658154	
	0.662101	
	0.661772	
	0.661443	
	0.663088	
	0.658647	
	0.649109	
	0.667528	
	0.668515	
	0.647135	
	0.627235	
	0.619506	
	0.597961	
	0.605033	
	0.651246	
	0.657825	
	0.665884	
	0.641708	
	0.484319	
	0.245522	
	0.229240	
	0.191414	
	0.180231	
	0.189276	
	0.202433	
	0.216906	
	0.225622	
	0.251607	
	0.313773	
	0.562109	
	0.640885	
	0.660456	
	0.648451	
	0.630360	
	0.606020	
	0.557504	
	0.438105	
	0.309333	
	0.258185	
	0.247660	
	0.243384	
	0.240259	
	0.228254	
	0.232201	
	0.251114	
	0.241081	
	0.209669	
	0.198157	
	0.212465	
	0.239437	
	0.259337	
	0.252594	
	0.243384	
	0.231707	
	0.218715	
	0.223320	
	0.233681	
	0.244864	
	0.248153	
	0.268711	
	0.289104	
	0.277592	
	0.251771	
	0.235654	
	0.228747	
	0.224635	
	0.225129	
	0.238943	
	0.215097	
	0.190428	
	0.179244	
	0.178257	
	0.182040	
	0.190921	
	0.184178	
	0.185000	
	0.213945	
	0.259172	
	0.309497	
	0.446164	
	0.551583	
	0.589409	
	0.615887	
	0.624439	
	0.633156	
	0.638583	
	0.643023	
	0.632498	
	0.623124	
	0.614736	
	0.612763	
	0.614736	
	0.613092	
	0.607335	
	0.566549	
	0.446657	
	0.338113	
	0.357520	0.176765
	0.559477	
	0.622301	
	0.647957	
	0.648286	
	0.654042	
	0.652069	
	0.654042	
	0.648944	
	0.613092	
	0.569674	
	0.463926	
	0.325614	
	0.267560	
	0.224142	
	0.196348	
	0.185658	
	0.183849	
	0.210327	
	0.246344	
	0.349790	
	0.542702	
	0.581844	
	0.601415	
	0.614243	
	0.617532	
	0.605855	
	0.590396	
	0.588751	
	0.567700	
	0.528394	
	0.506028	
	0.521487	
	0.483497	
	0.480043	
	0.505534	
	0.476096	
	0.472642	
	0.336304	
	0.309497	
	0.276112	
	0.240424	
	0.252100	
	0.260488	
	0.250127	
	0.231543	
	0.232365	
	0.240259	
	0.236312	
	0.236641	
	0.258843	
	0.273316	
	0.260159	
	0.262626	
	0.371170	
	0.585298	
	0.585298	
	0.587107	
	0.614078	
	0.625920	
	0.641050	
	0.650918	
	0.661608	
	0.676080	
	0.686277	
	0.680849	
	0.671969	
	0.654371	
	0.632498	
	0.625920	
	0.615723	
	0.586449	
	0.546978	
	0.464090	
	0.280223	
	0.232694	
	0.201940	
	0.188618	
	0.181547	
	0.185823	
	0.197993	
	0.221511	
	0.235654	
	0.239437	
	0.248976	
	0.252429	
	0.252100	
	0.253416	
	0.259666	
	0.264928	
	0.262955	
	0.277756	
	0.293709	
	0.306537	
	0.314431	
	0.323476	
	0.335975	
	0.353737	
	0.500436	
	0.577568	
	0.608980	0.134499
	0.618025	
	0.628386	
	0.608322	
	0.584147	
	0.578226	
	0.571976	
	0.580364	
	0.619834	
	0.665226	
	0.693348	
	0.708479	
	0.711275	
	0.702558	
	0.689566	
	0.674929	
	0.665226	
	0.655522	
	0.647957	
	0.596317	
	0.573621	
	0.597468	
	0.636938	
	0.654207	
	0.648780	
	0.629538	
	0.539907	
	0.291735	
	0.245686	
	0.237628	
	0.225622	
	0.207860	
	0.186974	
	0.186152	
	0.185165	
	0.187467	
	0.211314	
	0.240753	
	0.276934	
	0.315253	
	0.357849	
	0.392879	
	0.542867	
	0.543360	
	0.423633	
	0.458992	
	0.594672	
	0.642695	
	0.641543	
	0.623453	
	0.539578	
	0.361302	
	0.326930	
	0.332522	
	0.416561	
	0.511948	
	0.597961	
	0.646971	
	0.659470	
	0.649109	
	0.632498	
	0.610460	
	0.598784	
	0.594836	
	0.581351	
	0.557504	
	0.402746	
	0.227925	
	0.203584	
	0.186974	
	0.184836	
	0.171515	
	0.158851	
	0.158851	
	0.160167	
	0.161482	
	0.162798	
	0.163949	
	0.164772	
	0.215261	
	0.291242	
	0.336304	
	0.359329	
	0.415081	
	0.498462	
	0.561122	
	0.424126	
	0.302590	
	0.285321	
	0.350283	
	0.529874	
	0.543031	
	0.548294	
	0.561944	
	0.567043	
	0.570661	
	0.522967	
	0.326930	
	0.295518	
	0.305715	
	0.304563	0.097250
	0.310813	
	0.317391	
	0.294202	
	0.251771	
	0.222991	
	0.234503	
	0.252429	
	0.261310	
	0.258350	
	0.250620	
	0.255718	
	0.267395	
	0.292558	
	0.319694	
	0.326108	
	0.389096	
	0.534150	
	0.581186	
	0.573621	
	0.579542	
	0.599277	
	0.618848	
	0.632498	
	0.629867	
	0.623946	
	0.593850	
	0.577568	
	0.574772	
	0.565234	
	0.565562	
	0.561615	
	0.578555	
	0.585627	
	0.588751	
	0.586120	
	0.572141	
	0.550761	
	0.500929	
	0.362453	
	0.323970	
	0.309168	
	0.298478	
	0.299301	
	0.289268	
	0.274960	
	0.275289	
	0.265257	
	0.267395	
	0.275125	
	0.269698	
	0.268875	
	0.267724	
	0.279236	
	0.295025	
	0.324956	
	0.366894	
	0.426264	
	0.514415	
	0.529052	
	0.549116	
	0.571319	
	0.580035	
	0.588916	
	0.589080	
	0.599770	
	0.608980	
	0.617039	
	0.617368	
	0.628551	
	0.643352	
	0.643846	
	0.628058	
	0.608487	
	0.599441	
	0.602731	
	0.619341	
	0.628551	
	0.610460	
	0.583982	
	0.559313	
	0.530039	
	0.362453	
	0.265093	
	0.231543	
	0.221182	
	0.223155	
	0.213452	
	0.203584	
	0.204078	
	0.216412	
	0.240917	
	0.277756	
	0.317391	
	0.389589	
	0.555859	
	0.638419	
	0.682330	
	0.708643	
	0.704367	
	0.683481	0.139298
	0.643517	
	0.609473	
	0.624439	
	0.628715	
	0.646477	
	0.679369	
	0.716208	
	0.744167	
	0.756830	
	0.770809	
	0.765711	
	0.742358	
	0.694664	
	0.632005	
	0.407187	
	0.272987	
	0.278085	
	0.287624	
	0.258350	
	0.261310	
	0.336140	
	0.504219	
	0.559971	
	0.586613	
	0.562438	
	0.391892	
	0.241904	
	0.200624	
	0.172172	
	0.149970	
	0.148161	
	0.149970	
	0.151121	
	0.152273	
	0.153588	
	0.166087	
	0.195690	
	0.216412	
	0.223484	
	0.265257	
	0.495831	
	0.584640	
	0.575759	
	0.554544	
	0.586120	
	0.587107	
	0.595988	
	0.612269	
	0.618848	
	0.641379	
	0.665390	
	0.677396	
	0.687921	
	0.690553	
	0.657003	
	0.642201	
	0.629373	
	0.540236	
	0.296340	
	0.271671	
	0.280059	
	0.269862	
	0.292064	
	0.563753	
	0.571812	
	0.515895	
	0.295518	
	0.243877	
	0.198651	
	0.171021	
	0.172337	
	0.211972	
	0.218550	
	0.203255	
	0.181711	
	0.157864	
	0.158851	
	0.159838	
	0.161154	
	0.162305	
	0.163620	
	0.165265	
	0.173817	
	0.272987	
	0.297163	
	0.285979	
	0.278743	
	0.263284	
	0.265257	
	0.312951	
	0.460637	
	0.565069	
	0.588916	
	0.574608	
	0.602895	
	0.617039	
	0.596646	
	0.467215	
	0.292558	
	0.265915	0.153435
	0.287624	
	0.253087	
	0.207038	
	0.187632	
	0.180560	
	0.196019	
	0.215754	
	0.219208	
	0.223484	
	0.231543	
	0.232365	
	0.232036	
	0.234503	
	0.253416	
	0.300123	
	0.527079	
	0.584475	
	0.603060	
	0.605197	
	0.602731	
	0.598784	
	0.601250	
	0.601579	
	0.602566	
	0.614243	
	0.614901	
	0.614078	
	0.607664	
	0.605691	
	0.601086	
	0.588587	
	0.583324	
	0.584475	
	0.578061	
	0.575101	
	0.568523	
	0.558162	
	0.539413	
	0.471491	
	0.347159	
	0.322983	
	0.294696	
	0.274796	
	0.270027	
	0.265422	
	0.274796	
	0.273809	
	0.283019	
	0.285979	
	0.289762	
	0.299629	
	0.321009	
	0.329068	
	0.350119	
	0.356697	
	0.389589	
	0.444355	
	0.516389	
	0.554215	
	0.572963	
	0.596646	
	0.612269	
	0.628880	
	0.637267	
	0.640885	
	0.634800	
	0.627564	
	0.623288	
	0.596152	
	0.547801	
	0.536288	
	0.546485	
	0.581680	
	0.608651	
	0.613421	
	0.619834	
	0.628715	
	0.647793	
	0.642859	
	0.613092	
	0.578884	
	0.561451	
	0.467544	
	0.290913	
	0.266573	
	0.263119	
	0.243384	
	0.227431	
	0.237299	
	0.262626	
	0.299465	
	0.286637	
	0.275947	
	0.294202	
	0.308675	
	0.373637	
	0.521816	
	0.589245	
	0.613585	
	0.631840	0.121935
	0.650424	
	0.665555	
	0.660950	
	0.657989	
	0.668350	
	0.680356	
	0.683974	
	0.691046	
	0.704038	
	0.709795	
	0.695158	
	0.675258	
	0.663417	
	0.621972	
	0.574279	
	0.561780	
	0.608487	
	0.628058	
	0.610296	
	0.540400	
	0.310813	
	0.268053	
	0.206874	
	0.177106	
	0.176613	
	0.221182	
	0.292229	
	0.329232	
	0.255061	
	0.233845	
	0.242397	
	0.250127	
	0.222497	
	0.197828	
	0.185494	
	0.211972	
	0.275618	
	0.259008	
	0.208354	
	0.187467	
	0.176284	
	0.188947	
	0.216412	
	0.226609	
	0.234503	
	0.299136	
	0.360315	
	0.344527	
	0.469846	
	0.509152	
	0.335153	
	0.272493	
	0.270355	
	0.264106	
	0.270027	
	0.293215	
	0.294038	
	0.289597	
	0.285486	
	0.290091	
	0.282854	
	0.272000	
	0.259994	
	0.252923	
	0.240753	
	0.238943	
	0.221675	
	0.207696	
	0.193059	
	0.185823	
	0.182533	
	0.188125	
	0.245357	
	0.339758	
	0.566385	
	0.578061	
	0.547965	
	0.574443	
	0.625262	
	0.670159	
	0.697624	
	0.707492	
	0.711110	
	0.713413	
	0.720484	
	0.718675	
	0.699433	
	0.665884	
	0.629373	
	0.583160	
	0.483332	
	0.434981	
	0.381366	
	0.307853	
	0.277427	
	0.281703	
	0.275125	
	0.240917	
	0.223484	
	0.205393	0.132214
	0.187632	
	0.177600	
	0.175462	
	0.178751	
	0.183356	
	0.198815	
	0.219866	
	0.245357	
	0.277427	
	0.328081	
	0.360315	
	0.370348	
	0.497805	
	0.554708	
	0.562438	
	0.562602	
	0.539413	
	0.550597	
	0.584804	
	0.594508	
	0.604375	
	0.604211	
	0.599441	
	0.587765	
	0.584640	
	0.579377	
	0.588751	
	0.565562	
	0.506192	
	0.391399	
	0.350612	
	0.337620	
	0.327094	
	0.321503	
	0.342883	
	0.409489	
	0.542702	
	0.548294	
	0.547965	
	0.532999	
	0.516553	
	0.445835	
	0.333344	
	0.303741	
	0.289433	
	0.362453	
	0.571812	
	0.610789	
	0.627235	
	0.623453	
	0.616874	
	0.606020	
	0.581844	
	0.564082	
	0.438434	
	0.344856	
	0.317885	
	0.341567	
	0.488430	
	0.341896	
	0.330384	
	0.460143	
	0.536453	
	0.590067	
	0.624275	
	0.632498	
	0.630360	
	0.641050	
	0.679534	
	0.694500	
	0.711110	
	0.721142	
	0.724925	
	0.719004	
	0.700256	
	0.712919	
	0.732983	
	0.750252	
	0.749758	
	0.719169	
	0.677231	
	0.616052	
	0.539578	
	0.229734	
	0.150793	
	0.146023	
	0.147503	
	0.148655	
	0.150464	
	0.152108	
	0.152931	
	0.154411	
	0.165265	
	0.197664	
	0.212136	
	0.203584	
	0.180889	
	0.162140	
	0.161811	
	0.162798	0.153090
	0.184014	
	0.179244	
	0.168225	
	0.168225	
	0.195855	
	0.228418	
	0.279401	
	0.334002	
	0.571976	
	0.637432	
	0.655029	
	0.656180	
	0.657989	
	0.644997	
	0.644997	
	0.651082	
	0.654536	
	0.644504	
	0.593356	
	0.533822	
	0.334331	
	0.243713	
	0.197006	
	0.204242	
	0.218386	
	0.234996	
	0.237134	
	0.247331	
	0.264435	
	0.263941	
	0.240424	
	0.240424	
	0.219702	
	0.208354	
	0.220853	
	0.242233	
	0.257692	
	0.277427	
	0.341731	
	0.442381	
	0.563260	
	0.595494	
	0.617368	
	0.630360	
	0.660456	
	0.675916	
	0.675422	
	0.668679	
	0.667199	
	0.677231	
	0.695158	
	0.707328	
	0.700914	
	0.674929	
	0.640885	
	0.584640	
	0.537604	
	0.520007	
	0.399786	
	0.310648	
	0.295189	
	0.365085	
	0.357849	
	0.267066	
	0.230063	
	0.204900	
	0.179244	
	0.164772	
	0.165758	
	0.166910	
	0.168061	
	0.169212	
	0.170528	
	0.171679	
	0.172995	
	0.173817	
	0.232694	
	0.283677	
	0.491720	
	0.576088	
	0.578884	
	0.566220	
	0.561780	
	0.550597	
	0.549116	
	0.564576	
	0.575759	
	0.546814	
	0.540729	
	0.565562	
	0.567865	
	0.557833	
	0.565562	
	0.555037	
	0.518527	
	0.386465	
	0.375610	
	0.321503	
	0.264599	
	0.237628	0.141322
	0.228089	
	0.219373	
	0.214768	
	0.213288	
	0.217728	
	0.240424	
	0.268875	
	0.287459	
	0.318049	
	0.362289	
	0.484319	
	0.550103	
	0.495667	
	0.485799	
	0.517540	
	0.542045	
	0.550103	
	0.526092	
	0.540400	
	0.551912	
	0.588751	
	0.625262	
	0.663581	
	0.674600	
	0.687263	
	0.706670	
	0.721307	
	0.721800	
	0.715880	
	0.707163	
	0.706670	
	0.710123	
	0.711604	
	0.720156	
	0.724267	
	0.720484	
	0.706834	
	0.685125	
	0.602237	
	0.242726	
	0.185165	
	0.158029	
	0.158687	
	0.171679	
	0.167732	
	0.166910	
	0.164443	
	0.181053	
	0.244042	
	0.325121	
	0.537440	
	0.543525	
	0.333179	
	0.247166	
	0.212959	
	0.187303	
	0.179409	
	0.178257	
	0.176448	
	0.172830	
	0.179409	
	0.205229	
	0.237299	
	0.268875	
	0.348145	
	0.565069	
	0.586120	
	0.414423	
	0.231214	
	0.199473	
	0.182205	
	0.178257	
	0.176613	
	0.177764	
	0.242562	
	0.600593	
	0.657167	
	0.666048	
	0.656674	
	0.658318	
	0.666377	
	0.658812	
	0.641543	
	0.640228	
	0.636774	
	0.652727	
	0.662265	
	0.659305	
	0.615065	
	0.588751	
	0.470340	
	0.322983	
	0.315582	
	0.311142	
	0.323147	
	0.313609	
	0.291900	
	0.266408	
	0.251771	
	0.237628	0.159440
	0.246344	
	0.235325	
	0.243219	
	0.286308	
	0.339593	
	0.555530	
	0.594179	
	0.607993	
	0.615394	
	0.606020	
	0.595165	
	0.612598	
	0.621315	
	0.614572	
	0.610131	
	0.605526	
	0.622795	
	0.658976	
	0.680849	
	0.664239	
	0.650753	
	0.657003	
	0.658318	
	0.643023	
	0.598126	
	0.587436	
	0.493529	
	0.280223	
	0.235325	
	0.224471	
	0.232036	
	0.223649	
	0.195032	
	0.172666	
	0.163949	
	0.165101	
	0.166416	
	0.167239	
	0.168554	
	0.170034	
	0.171186	
	0.172172	
	0.204736	
	0.241081	
	0.282526	
	0.308181	
	0.353737	
	0.525270	
	0.566878	
	0.570990	
	0.567207	
	0.580693	
	0.609802	
	0.610625	
	0.577239	
	0.527408	
	0.466228	
	0.317062	
	0.279401	
	0.308346	
	0.376433	
	0.438270	
	0.284499	
	0.257692	
	0.257363	
	0.248976	
	0.236805	
	0.274303	
	0.344856	
	0.398470	
	0.528723	
	0.556024	
	0.546649	
	0.591876	
	0.622959	
	0.628715	
	0.603388	
	0.583160	
	0.583982	
	0.443368	
	0.299301	
	0.275783	
	0.267560	
	0.271342	
	0.309168	
	0.441724	
	0.524118	
	0.520665	
	0.517540	
	0.531684	
	0.544676	
	0.548623	
	0.553557	
	0.544183	
	0.535795	
	0.551090	
	0.560629	
	0.548294	
	0.411298	
	0.355217	0.203397
	0.353408	
	0.421495	
	0.395839	
	0.452249	
	0.468037	
	0.368867	
	0.292887	
	0.276934	
	0.276112	
	0.296176	
	0.332522	
	0.422482	
	0.551090	
	0.590396	
	0.640557	
	0.648944	
	0.621972	
	0.586120	
	0.540071	
	0.378571	
	0.353408	
	0.350448	
	0.537440	
	0.607335	
	0.659141	
	0.685290	
	0.697624	
	0.693348	
	0.697953	
	0.693020	
	0.664403	
	0.644339	
	0.633978	
	0.623617	
	0.621644	
	0.628880	
	0.630031	
	0.633320	
	0.631347	
	0.641379	
	0.616710	
	0.582995	
	0.529052	
	0.337620	
	0.278907	
	0.249798	
	0.240753	
	0.363769	
	0.582173	
	0.607664	
	0.594508	
	0.570825	
	0.553228	
	0.473629	
	0.304070	
	0.294696	
	0.259172	
	0.272000	
	0.386629	
	0.416068	
	0.568029	
	0.638747	
	0.678876	
	0.688415	
	0.659305	
	0.605197	
	0.343705	
	0.172501	
	0.153259	
	0.155233	
	0.157042	
	0.158522	
	0.160002	
	0.161811	
	0.165923	
	0.550761	
	0.594508	
	0.568194	
	0.329890	
	0.239108	
	0.211643	
	0.223484	
	0.238121	
	0.255390	
	0.267889	
	0.289104	
	0.334660	
	0.528065	
	0.583818	
	0.600428	
	0.617368	
	0.650095	
	0.646148	
	0.639405	
	0.623617	
	0.630031	
	0.645326	
	0.648944	
	0.650095	
	0.633485	0.137282
	0.588422	
	0.504383	
	0.313938	
	0.260488	
	0.229569	
	0.219373	
	0.199802	
	0.187467	
	0.193717	
	0.197664	
	0.208354	
	0.211150	
	0.215590	
	0.221017	
	0.229405	
	0.218550	
	0.217235	
	0.229569	
	0.225787	
	0.226280	
	0.218221	
	0.220359	
	0.221511	
	0.217070	
	0.211150	
	0.209012	
	0.205229	
	0.210656	
	0.220853	
	0.236312	
	0.249140	
	0.260323	
	0.265915	
	0.282361	
	0.311800	
	0.323805	
	0.333015	
	0.325285	
	0.366729	
	0.386136	
	0.499285	
	0.552406	
	0.576252	
	0.590232	
	0.596152	
	0.594179	
	0.597797	
	0.599770	
	0.600428	
	0.598290	
	0.596974	
	0.599770	
	0.596646	
	0.582831	
	0.557833	
	0.525927	
	0.519513	
	0.542867	
	0.543196	
	0.538591	
	0.476425	
	0.351928	
	0.312128	
	0.289926	
	0.281539	
	0.284499	
	0.289597	
	0.303248	
	0.366072	
	0.412285	
	0.335646	
	0.329726	
	0.477083	
	0.573950	
	0.577239	
	0.568358	
	0.582666	
	0.525927	
	0.354066	
	0.524941	
	0.604704	
	0.646313	
	0.680685	
	0.711768	
	0.720813	
	0.710617	
	0.699762	
	0.699762	
	0.685619	
	0.641872	
	0.562109	
	0.317062	
	0.356204	
	0.555859	
	0.596317	
	0.616381	
	0.634143	
	0.653384	
	0.645819	
	0.618848	0.166106
	0.584969	
	0.522967	
	0.311306	
	0.292722	
	0.293051	
	0.288775	
	0.267889	
	0.284499	
	0.318214	
	0.368867	
	0.504054	
	0.589574	
	0.576417	
	0.558820	
	0.569181	
	0.577897	
	0.554215	
	0.278414	
	0.250949	
	0.265915	
	0.310319	
	0.335975	
	0.332522	
	0.339100	
	0.539578	
	0.579706	
	0.592041	
	0.605197	
	0.617861	
	0.616874	
	0.630853	
	0.634800	
	0.606842	
	0.595165	
	0.583982	
	0.498956	
	0.318214	
	0.295025	
	0.289762	
	0.250620	
	0.236312	
	0.220688	
	0.206545	
	0.194868	
	0.167239	
	0.167732	
	0.169705	
	0.170199	
	0.171679	
	0.173488	
	0.174475	
	0.175462	
	0.178093	
	0.234832	
	0.240259	
	0.267889	
	0.305057	
	0.375446	
	0.490239	
	0.546156	
	0.528723	
	0.531684	
	0.517211	
	0.510304	
	0.546485	
	0.571976	
	0.612598	
	0.640721	
	0.653220	
	0.653878	
	0.673942	
	0.685290	
	0.696144	
	0.700420	
	0.684303	
	0.642366	
	0.539907	
	0.268546	
	0.230885	
	0.211807	
	0.199802	
	0.188947	
	0.184671	
	0.180724	
	0.182862	
	0.192730	
	0.203091	
	0.212136	
	0.224471	
	0.228582	
	0.242726	
	0.250620	
	0.253416	
	0.259501	
	0.270191	
	0.274467	
	0.278743	
	0.293873	
	0.331535	
	0.447151	0.089683
	0.524941	
	0.541058	
	0.562931	
	0.567043	
	0.589903	
	0.603717	
	0.618683	
	0.623288	
	0.617203	
	0.615559	
	0.616874	
	0.628222	
	0.628715	
	0.595330	
	0.539578	
	0.334166	
	0.297820	
	0.290420	
	0.281374	
	0.289104	
	0.300287	
	0.289926	
	0.268875	
	0.248647	
	0.244700	
	0.247166	
	0.249962	
	0.253087	
	0.262297	
	0.269040	
	0.280716	
	0.289926	
	0.298149	
	0.316076	
	0.319694	
	0.313609	
	0.322654	
	0.363276	
	0.469682	
	0.562109	
	0.613914	
	0.626248	
	0.618848	
	0.609473	
	0.614901	
	0.624933	
	0.637925	
	0.642530	
	0.637432	
	0.643517	
	0.650095	
	0.635129	
	0.607664	
	0.563260	
	0.520829	
	0.500107	
	0.475109	
	0.370841	
	0.322490	
	0.307359	
	0.297327	
	0.276112	
	0.278414	
	0.278085	
	0.286802	
	0.312951	
	0.376597	
	0.511290	
	0.577075	
	0.635787	
	0.673613	
	0.688086	
	0.686606	
	0.643188	
	0.604375	
	0.592863	
	0.604211	
	0.604704	
	0.606513	
	0.639899	
	0.686441	
	0.723280	
	0.745154	
	0.728379	
	0.709959	
	0.681343	
	0.660292	
	0.639899	
	0.619012	
	0.578390	
	0.344198	
	0.229240	
	0.222662	
	0.255061	
	0.310155	
	0.425771	
	0.330384	
	0.337620	
	0.384327	
	0.304070	0.119870
	0.243713	
	0.220030	
	0.245851	
	0.270849	
	0.228254	
	0.212794	
	0.211643	
	0.203091	
	0.194046	
	0.218386	
	0.302754	
	0.612105	
	0.653220	
	0.643023	
	0.605691	
	0.629867	
	0.649766	
	0.627729	
	0.602566	
	0.597303	
	0.616381	
	0.610296	
	0.592863	
	0.545498	
	0.319365	
	0.237299	
	0.190263	
	0.172501	
	0.171679	
	0.176777	
	0.203255	
	0.246673	
	0.283183	
	0.271342	
	0.251771	
	0.245851	
	0.215919	
	0.183356	
	0.171679	
	0.172172	
	0.173817	
	0.175297	
	0.176777	
	0.177764	
	0.179738	
	0.181547	
	0.198980	
	0.199473	
	0.210163	
	0.216577	
	0.225951	
	0.239437	
	0.261475	
	0.292393	
	0.322654	
	0.433336	
	0.528888	
	0.531355	
	0.554708	
	0.575595	
	0.592534	
	0.595823	
	0.594179	
	0.574279	
	0.546649	
	0.508330	
	0.374788	
	0.352421	
	0.445506	
	0.542702	
	0.553228	
	0.565398	
	0.576417	
	0.584311	
	0.587271	
	0.577897	
	0.556682	
	0.519842	
	0.368703	
	0.302919	
	0.274960	
	0.272987	
	0.272165	
	0.276112	
	0.283512	
	0.285650	
	0.280881	
	0.266737	
	0.260488	
	0.263284	
	0.258514	
	0.270684	
	0.279401	
	0.301274	
	0.337949	
	0.358013	
	0.376104	
	0.450440	
	0.511126	
	0.516060	0.115840
	0.521158	
	0.523954	
	0.560300	
	0.595330	
	0.620328	
	0.650589	
	0.686112	
	0.723116	
	0.724267	
	0.721307	
	0.710946	
	0.694500	
	0.674764	
	0.652398	
	0.651246	
	0.676245	
	0.692526	
	0.706670	
	0.702229	
	0.682823	
	0.665390	
	0.662594	
	0.609309	
	0.264270	
	0.178586	
	0.164278	
	0.165758	
	0.167074	
	0.168390	
	0.169705	
	0.170857	
	0.172172	
	0.217399	
	0.237134	
	0.239272	
	0.230720	
	0.210492	
	0.185000	
	0.181382	
	0.185000	
	0.184507	
	0.189112	
	0.226938	
	0.557010	
	0.669008	
	0.723116	
	0.745318	
	0.729365	
	0.712919	
	0.697131	
	0.696967	
	0.710781	
	0.716866	
	0.697789	
	0.663746	
	0.634965	
	0.648451	
	0.669831	
	0.691046	
	0.731174	
	0.750581	
	0.741535	
	0.710946	
	0.669008	
	0.603882	
	0.260323	
	0.189276	
	0.158029	
	0.152108	
	0.153259	
	0.154740	
	0.156220	
	0.157206	
	0.158522	
	0.159673	
	0.160825	
	0.162305	
	0.163620	
	0.165430	
	0.266244	
	0.517375	
	0.634143	
	0.663581	
	0.672133	
	0.672791	
	0.680356	
	0.688908	
	0.681672	
	0.664074	
	0.635952	
	0.553228	
	0.316404	
	0.274960	
	0.243548	
	0.215426	
	0.208354	
	0.274138	
	0.504876	
	0.307359	
	0.239601	0.135244
	0.221511	
	0.215097	
	0.187467	
	0.170199	
	0.171021	
	0.191250	
	0.226609	
	0.274467	
	0.320516	
	0.254403	
	0.306701	
	0.338607	
	0.447480	
	0.518198	
	0.593850	
	0.618519	
	0.652562	
	0.643681	
	0.604540	
	0.586449	
	0.367881	
	0.231049	
	0.177106	
	0.167403	
	0.168390	
	0.169705	
	0.171186	
	0.172830	
	0.174310	
	0.259501	
	0.276276	
	0.286308	
	0.356204	
	0.486621	
	0.521323	
	0.570661	
	0.559806	
	0.445177	
	0.322983	
	0.303905	
	0.290584	
	0.272493	
	0.262626	
	0.253580	
	0.265586	
	0.268217	
	0.268546	
	0.275125	
	0.270684	
	0.253416	
	0.247166	
	0.267231	
	0.288117	
	0.294367	
	0.294696	
	0.307688	
	0.330055	
	0.336304	
	0.345843	
	0.366072	
	0.365578	
	0.348968	
	0.353573	
	0.435803	
	0.518198	
	0.557833	
	0.582502	
	0.590889	
	0.594672	
	0.597468	
	0.601744	
	0.599935	
	0.593027	
	0.571483	
	0.551090	
	0.544018	
	0.535631	
	0.503890	
	0.366894	
	0.335811	
	0.328575	
	0.333837	
	0.329726	
	0.326437	
	0.326601	
	0.310977	
	0.333673	
	0.365249	
	0.433500	
	0.398635	
	0.512277	
	0.555201	
	0.552406	
	0.544840	
	0.548787	
	0.566714	
	0.586120	
	0.608487	
	0.616545	
	0.622466	0.204049
	0.630689	
	0.628551	
	0.600757	
	0.554873	
	0.552406	
	0.580035	
	0.634472	
	0.675916	
	0.689566	
	0.678054	
	0.668350	
	0.662430	
	0.655194	
	0.663252	
	0.682823	
	0.690059	
	0.698118	
	0.703052	
	0.686112	
	0.669008	
	0.655522	
	0.670817	
	0.662759	
	0.652233	
	0.647628	
	0.629373	
	0.593356	
	0.431527	
	0.265257	
	0.237299	
	0.213123	
	0.180395	
	0.171186	
	0.159180	
	0.160167	
	0.161482	
	0.162963	
	0.164114	
	0.164936	
	0.166416	
	0.228418	
	0.553557	
	0.650918	
	0.673778	
	0.647957	
	0.562109	
	0.374788	
	0.555530	
	0.386136	
	0.218715	
	0.196677	
	0.221840	
	0.219208	
	0.256870	
	0.332686	
	0.508166	
	0.569838	
	0.611283	
	0.645655	
	0.640228	
	0.581844	
	0.473136	
	0.341567	
	0.496653	
	0.601086	
	0.655029	
	0.628880	
	0.564411	
	0.524941	
	0.596317	
	0.585462	
	0.308510	
	0.188125	
	0.166910	
	0.167732	
	0.169212	
	0.242726	
	0.273645	
	0.471984	
	0.587600	
	0.636938	
	0.636938	
	0.617039	
	0.580857	
	0.470833	
	0.389589	
	0.316898	
	0.308675	
	0.301439	
	0.296505	
	0.265257	
	0.254074	
	0.232365	
	0.219702	
	0.224306	
	0.212959	
	0.223978	
	0.253745	
	0.255554	
	0.233187	0.197480
	0.217728	
	0.224635	
	0.232529	
	0.240424	
	0.249469	
	0.249140	
	0.233352	
	0.212465	
	0.207696	
	0.204571	
	0.211314	
	0.221511	
	0.233845	
	0.255061	
	0.310813	
	0.369854	
	0.431527	
	0.346172	
	0.290749	
	0.264270	
	0.308675	
	0.538591	
	0.581680	
	0.597303	
	0.593521	
	0.607500	
	0.599935	
	0.595823	
	0.593356	
	0.603060	
	0.609802	
	0.604211	
	0.598290	
	0.599441	
	0.591383	
	0.576417	
	0.568029	
	0.557668	
	0.519349	
	0.408996	
	0.338278	
	0.298807	
	0.264435	
	0.249798	
	0.252265	
	0.241575	
	0.252923	
	0.260323	
	0.272493	
	0.273809	
	0.280716	
	0.294531	
	0.325943	
	0.455867	
	0.519185	
	0.508166	
	0.496818	
	0.513099	
	0.559148	
	0.590396	
	0.594672	
	0.601908	
	0.615887	
	0.625097	
	0.624768	
	0.622630	
	0.606842	
	0.606678	
	0.597961	
	0.602566	
	0.602731	
	0.585791	
	0.546321	
	0.450275	
	0.350777	
	0.396990	
	0.491884	
	0.565234	
	0.599277	
	0.615559	
	0.613749	
	0.619506	
	0.628715	
	0.639899	
	0.648451	
	0.643517	
	0.642859	
	0.645161	
	0.661936	
	0.666706	
	0.671311	
	0.667199	
	0.665884	
	0.633814	
	0.620492	
	0.571319	
	0.358835	
	0.347981	
	0.402582	
	0.517540	0.218711
	0.565398	
	0.596974	
	0.607829	
	0.610625	
	0.608158	
	0.634472	
	0.648286	
	0.667364	
	0.694006	
	0.706012	
	0.666870	
	0.297327	
	0.194046	
	0.187138	
	0.205393	
	0.237134	
	0.231707	
	0.227431	
	0.409818	
	0.620492	
	0.632169	
	0.658647	
	0.675258	
	0.663088	
	0.617203	
	0.603882	
	0.599112	
	0.580857	
	0.543360	
	0.250127	
	0.212136	
	0.194868	
	0.164772	
	0.160002	
	0.166910	
	0.205065	
	0.169541	
	0.164278	
	0.164936	
	0.169212	
	0.310813	
	0.487444	
	0.279894	
	0.223813	
	0.207696	
	0.229734	
	0.242068	
	0.293709	
	0.583324	
	0.628386	
	0.645490	
	0.654700	
	0.647957	
	0.581351	
	0.293709	
	0.245029	
	0.260981	
	0.284664	
	0.289268	
	0.239930	
	0.183027	
	0.174475	
	0.177764	
	0.194210	
	0.216083	
	0.239437	
	0.345350	
	0.624439	
	0.662265	
	0.648780	
	0.608816	
	0.547307	
	0.298478	
	0.271013	
	0.285815	
	0.446493	
	0.581186	
	0.607664	
	0.567207	
	0.387123	
	0.245851	
	0.184507	
	0.175133	
	0.176119	
	0.177271	
	0.178257	
	0.191579	
	0.315747	
	0.521487	
	0.529381	
	0.466393	
	0.377419	
	0.296669	
	0.264764	
	0.259337	
	0.261146	
	0.260159	
	0.273974	
	0.287624	
	0.295682	0.119446
	0.301603	
	0.338936	
	0.465570	
	0.380873	
	0.282197	
	0.254074	
	0.235490	
	0.210492	
	0.205722	
	0.205558	
	0.202598	
	0.206380	
	0.227431	
	0.244371	
	0.276605	
	0.407351	
	0.556846	
	0.573292	
	0.588587	
	0.626577	
	0.646477	
	0.644997	
	0.634143	
	0.624768	
	0.617697	
	0.623288	
	0.623617	
	0.620492	
	0.617039	
	0.617697	
	0.617203	
	0.613749	
	0.601415	
	0.595165	
	0.579706	
	0.574279	
	0.578555	
	0.591218	
	0.606513	
	0.610625	
	0.603553	
	0.592698	
	0.555366	
	0.342225	
	0.265915	
	0.247989	
	0.272493	
	0.303577	
	0.413272	
	0.569838	
	0.598619	
	0.599277	
	0.555859	
	0.452742	
	0.440901	
	0.542538	
	0.573457	
	0.570661	
	0.547143	
	0.353902	
	0.317556	
	0.412614	
	0.507343	
	0.505699	
	0.555037	
	0.618848	
	0.653220	
	0.686770	
	0.696309	
	0.688250	
	0.688250	
	0.674435	
	0.627235	
	0.590232	
	0.597303	
	0.640885	
	0.686606	
	0.696309	
	0.675587	
	0.661936	
	0.673449	
	0.680356	
	0.675587	
	0.637596	
	0.580528	
	0.279565	
	0.216577	
	0.183027	
	0.171186	
	0.165101	
	0.165923	
	0.167074	
	0.168883	
	0.226938	
	0.246015	
	0.248153	
	0.244700	
	0.240753	
	0.238121	
	0.244371	0.162341
	0.237792	
	0.250456	
	0.294531	
	0.390412	
	0.535960	
	0.590232	
	0.605691	
	0.592698	
	0.564576	
	0.588916	
	0.626248	
	0.632498	
	0.637925	
	0.659470	
	0.682330	
	0.687592	
	0.678218	
	0.669831	
	0.662430	
	0.650095	
	0.657825	
	0.654042	
	0.623124	
	0.511126	
	0.283348	
	0.270849	
	0.276605	
	0.279401	
	0.373143	
	0.669502	
	0.705190	
	0.688908	
	0.587271	
	0.229076	
	0.201775	
	0.174804	
	0.159838	
	0.160496	
	0.161811	
	0.162798	
	0.176119	
	0.257199	
	0.285650	
	0.525927	
	0.621644	
	0.630360	
	0.614572	
	0.610789	
	0.577568	
	0.521158	
	0.310648	
	0.243877	
	0.198651	
	0.189276	
	0.183685	
	0.192237	
	0.204571	
	0.217728	
	0.252429	
	0.378242	
	0.575101	
	0.535795	
	0.537440	
	0.448137	
	0.525434	
	0.483332	
	0.351764	
	0.343212	
	0.363276	
	0.437448	
	0.444519	
	0.513593	
	0.474780	
	0.389918	
	0.490733	
	0.450440	
	0.296834	
	0.245686	
	0.204078	
	0.177764	
	0.174475	
	0.176119	
	0.176942	
	0.178093	
	0.179902	
	0.180724	
	0.214603	
	0.215754	
	0.220853	
	0.234832	
	0.262132	
	0.316733	
	0.516224	
	0.574608	
	0.590889	
	0.581351	
	0.556846	
	0.481523	
	0.335646	
	0.303083	0.158889
	0.313444	
	0.321338	
	0.328739	
	0.317062	
	0.302919	
	0.276605	
	0.277263	
	0.278578	
	0.287130	
	0.293709	
	0.299794	
	0.306372	
	0.294202	
	0.277921	
	0.273809	
	0.293051	
	0.343212	
	0.434652	
	0.508495	
	0.514909	
	0.450275	
	0.499449	
	0.541387	
	0.566220	
	0.588587	
	0.613256	
	0.615723	
	0.615723	
	0.600757	
	0.603882	
	0.609967	
	0.603717	
	0.580035	
	0.548623	
	0.550103	
	0.581022	
	0.587107	
	0.584804	
	0.579048	
	0.554544	
	0.546485	
	0.502410	
	0.411134	
	0.337949	
	0.331041	
	0.320680	
	0.359493	
	0.375281	
	0.480207	
	0.506357	
	0.521487	
	0.554215	
	0.576417	
	0.576746	
	0.584969	
	0.611611	
	0.636774	
	0.647464	
	0.656345	
	0.671804	
	0.673613	
	0.678711	
	0.697131	
	0.699762	
	0.688250	
	0.669008	
	0.640063	
	0.614078	
	0.597139	
	0.585133	
	0.502245	
	0.388767	
	0.367552	
	0.239272	
	0.190921	
	0.179244	
	0.172666	
	0.173817	
	0.175297	
	0.177435	
	0.180724	
	0.601579	
	0.608651	
	0.617861	
	0.630689	
	0.632169	
	0.621315	
	0.610296	
	0.616381	
	0.624604	
	0.639734	
	0.658154	
	0.679040	
	0.688250	
	0.721142	
	0.748772	
	0.756666	
	0.734793	
	0.704203	
	0.678218	0.124774
	0.642201	
	0.588916	
	0.521323	
	0.484483	
	0.360973	
	0.270520	
	0.230885	
	0.199308	
	0.176942	
	0.167896	
	0.158029	
	0.159344	
	0.160825	
	0.162469	
	0.164114	
	0.166252	
	0.167896	
	0.169212	
	0.173324	
	0.251442	
	0.332028	
	0.484483	
	0.382189	
	0.271507	
	0.263284	
	0.280881	
	0.328575	
	0.301603	
	0.377584	
	0.593356	
	0.631511	
	0.650753	
	0.656345	
	0.660292	
	0.657332	
	0.652069	
	0.625262	
	0.571154	
	0.340909	
	0.292558	
	0.261475	
	0.241904	
	0.225293	
	0.231707	
	0.254074	
	0.293215	
	0.334166	
	0.314760	
	0.267395	
	0.237792	
	0.246015	
	0.263448	
	0.264270	
	0.265093	
	0.264435	
	0.252594	
	0.276441	
	0.319529	
	0.420015	
	0.475109	
	0.352586	
	0.250291	
	0.211314	
	0.205229	
	0.213288	
	0.217728	
	0.218550	
	0.227760	
	0.240588	
	0.236312	
	0.243877	
	0.242891	
	0.277098	
	0.345021	
	0.395346	
	0.291406	
	0.258350	
	0.252429	
	0.233352	
	0.236805	
	0.260323	
	0.377748	
	0.594836	
	0.624439	
	0.638912	
	0.662430	
	0.679534	
	0.686606	
	0.686112	
	0.686112	
	0.688908	
	0.688250	
	0.683152	
	0.679698	
	0.661114	
	0.651082	
	0.639734	
	0.631676	
	0.639241	
	0.657825	0.174964
	0.674271	
	0.651246	
	0.580364	
	0.282197	
	0.207203	
	0.180724	
	0.175462	
	0.184507	
	0.183356	
	0.174968	
	0.174475	
	0.175791	
	0.177106	
	0.178093	
	0.179244	
	0.180560	
	0.320352	
	0.519185	
	0.618683	
	0.679534	
	0.714728	
	0.731010	
	0.725912	
	0.707657	
	0.697953	
	0.683974	
	0.675422	
	0.698940	
	0.725583	
	0.747292	
	0.747292	
	0.740549	
	0.712919	
	0.691704	
	0.689237	
	0.685948	
	0.651904	
	0.607335	
	0.396826	
	0.245851	
	0.178751	
	0.150957	
	0.152273	
	0.153753	
	0.155397	
	0.157206	
	0.158358	
	0.160002	
	0.161318	
	0.162798	
	0.164114	
	0.166581	
	0.318378	
	0.361302	
	0.417548	
	0.559477	
	0.523132	
	0.551419	
	0.573457	
	0.558984	
	0.429553	
	0.278743	
	0.233516	
	0.227596	
	0.275783	
	0.489582	
	0.559806	
	0.616381	
	0.652398	
	0.643846	
	0.638090	
	0.652727	
	0.627564	
	0.571483	
	0.290420	
	0.205558	
	0.172172	
	0.164936	
	0.166910	
	0.213288	
	0.244371	
	0.314760	
	0.597303	
	0.609473	
	0.593356	
	0.565562	
	0.535631	
	0.323805	
	0.220195	
	0.174639	
	0.171350	
	0.172501	
	0.173653	
	0.174804	
	0.175955	
	0.177271	
	0.177929	
	0.179573	
	0.194868	
	0.188947	0.181684
	0.185494	
	0.187632	
	0.191250	
	0.204242	
	0.227760	
	0.301110	
	0.605362	
	0.680685	
	0.731010	
	0.762586	
	0.775414	
	0.777059	
	0.756337	
	0.710288	
	0.628715	
	0.304892	
	0.231378	
	0.182698	
	0.170857	
	0.172830	
	0.174475	
	0.176119	
	0.177764	
	0.178915	
	0.180889	
	0.182698	
	0.183520	
	0.184671	
	0.185987	
	0.186974	
	0.194375	
	0.237628	
	0.252594	
	0.266737	
	0.286637	
	0.303741	
	0.319200	
	0.372321	
	0.509810	
	0.570825	
	0.599935	
	0.618519	
	0.641050	
	0.657332	
	0.664732	
	0.662265	
	0.644504	
	0.615065	
	0.594836	
	0.597961	
	0.600264	
	0.602073	
	0.583160	
	0.589409	
	0.601744	
	0.609473	
	0.621150	
	0.608980	
	0.578719	
	0.525763	
	0.384162	
	0.281045	
	0.237628	
	0.220853	
	0.216083	
	0.222991	
	0.231543	
	0.239272	
	0.246015	
	0.273480	
	0.315582	
	0.300452	
	0.291242	
	0.289597	
	0.327917	
	0.536782	
	0.617203	
	0.658483	
	0.675093	
	0.684632	
	0.670817	
	0.656674	
	0.666212	
	0.664239	
	0.667035	
	0.669831	
	0.666377	
	0.668186	
	0.668186	
	0.643846	
	0.569016	
	0.289104	
	0.259008	
	0.292722	
	0.539742	
	0.613749	
	0.613092	
	0.621479	
	0.649437	
	0.660785	0.222364
	0.645819	
	0.640228	
	0.607993	
	0.597139	
	0.583653	
	0.585627	
	0.642366	
	0.686770	
	0.726076	
	0.744331	
	0.727392	
	0.699269	
	0.673778	
	0.643846	
	0.592041	
	0.269040	
	0.197335	
	0.199308	
	0.219702	
	0.272987	
	0.311800	
	0.576088	
	0.619834	
	0.613256	
	0.597797	
	0.549774	
	0.300452	
	0.227760	
	0.181711	
	0.170528	
	0.180231	
	0.166745	
	0.157371	
	0.158687	
	0.160660	
	0.162469	
	0.164114	
	0.165923	
	0.167403	
	0.169377	
	0.247495	
	0.513428	
	0.528723	
	0.325614	
	0.259994	
	0.216083	
	0.196019	
	0.180560	
	0.176284	
	0.177106	
	0.178422	
	0.179409	
	0.180889	
	0.203913	
	0.238779	
	0.298972	
	0.284828	
	0.264270	
	0.302425	
	0.505205	
	0.491062	
	0.379557	
	0.504383	
	0.513428	
	0.503396	
	0.537604	
	0.527572	
	0.550925	
	0.573621	
	0.612763	
	0.656674	
	0.722458	
	0.761435	
	0.757817	
	0.724925	
	0.697624	
	0.681672	
	0.672297	
	0.688579	
	0.688908	
	0.688086	
	0.688579	
	0.704367	
	0.702887	
	0.659305	
	0.343540	
	0.204736	
	0.172172	
	0.160989	
	0.161482	
	0.162798	
	0.163949	
	0.165265	
	0.166745	
	0.167568	
	0.168883	
	0.170199	
	0.171350	
	0.204242	
	0.256212	0.173107
	0.288611	
	0.347323	
	0.297491	
	0.269204	
	0.214274	
	0.200789	
	0.229898	
	0.267066	
	0.304234	
	0.378077	
	0.576581	
	0.659141	
	0.684632	
	0.665390	
	0.622795	
	0.570332	
	0.488595	
	0.316569	
	0.252265	
	0.224142	
	0.231707	
	0.246673	
	0.264106	
	0.272493	
	0.278743	
	0.274796	
	0.284006	
	0.299136	
	0.319365	
	0.344034	
	0.338607	
	0.320352	
	0.291735	
	0.276276	
	0.293380	
	0.333015	
	0.524118	
	0.586778	
	0.601579	
	0.613585	
	0.621644	
	0.650424	
	0.674107	
	0.681014	
	0.682987	
	0.685948	
	0.676080	
	0.668350	
	0.663417	
	0.631018	
	0.544183	
	0.390741	
	0.509646	
	0.529710	
	0.473136	
	0.345021	
	0.286637	
	0.280716	
	0.397484	
	0.597303	
	0.629702	
	0.627893	
	0.618848	
	0.614407	
	0.560629	
	0.564576	
	0.598455	
	0.640885	
	0.668186	
	0.680521	
	0.668186	
	0.598784	
	0.456032	
	0.410805	
	0.400773	
	0.297820	
	0.257034	
	0.229734	
	0.216741	
	0.268875	
	0.379722	
	0.440079	
	0.323805	
	0.302096	
	0.391234	
	0.609145	
	0.636281	
	0.620492	
	0.623453	
	0.604704	
	0.584311	
	0.594343	
	0.611776	
	0.563753	
	0.275454	
	0.245851	
	0.270191	
	0.281045	
	0.283512	
	0.310319	0.163763
	0.312786	
	0.403075	
	0.570990	
	0.577075	
	0.488430	
	0.264928	
	0.248318	
	0.228582	
	0.194868	
	0.170692	
	0.167403	
	0.168390	
	0.169870	
	0.187303	
	0.242233	
	0.231049	
	0.259008	
	0.262132	
	0.247002	
	0.241410	
	0.251114	
	0.254403	
	0.223978	
	0.219373	
	0.236477	
	0.203749	
	0.224142	
	0.466228	
	0.612434	
	0.621808	
	0.625755	
	0.616216	
	0.607007	
	0.610131	
	0.591383	
	0.513264	
	0.501916	
	0.461623	
	0.241739	
	0.201117	
	0.203913	
	0.193223	
	0.185823	
	0.191414	
	0.207696	
	0.308675	
	0.514415	
	0.431691	
	0.301603	
	0.244042	
	0.244535	
	0.298807	
	0.294367	
	0.277756	
	0.261639	
	0.275783	
	0.313444	
	0.315253	
	0.307030	
	0.323805	
	0.295025	
	0.287953	
	0.339264	
	0.450604	
	0.537440	
	0.567207	
	0.572305	
	0.565562	
	0.570167	
	0.575595	
	0.597961	
	0.613749	
	0.597468	
	0.574772	
	0.563424	
	0.527736	
	0.483332	
	0.361631	
	0.356368	
	0.308510	
	0.284499	
	0.285321	
	0.280059	
	0.289762	
	0.300945	
	0.342883	
	0.391892	
	0.504383	
	0.515566	
	0.470998	
	0.347159	
	0.320516	
	0.321009	
	0.350283	
	0.493529	
	0.524941	
	0.558326	
	0.570990	
	0.594836	
	0.606678	0.147855
	0.604046	
	0.597139	
	0.601744	
	0.605526	
	0.610460	
	0.623288	
	0.634143	
	0.626906	
	0.601579	
	0.582995	
	0.580035	
	0.582995	
	0.588587	
	0.584147	
	0.580528	
	0.585956	
	0.585298	
	0.575266	
	0.576746	
	0.559971	
	0.513099	
	0.366894	
	0.346501	
	0.334495	
	0.346665	
	0.363440	
	0.458499	
	0.542702	
	0.562109	
	0.567043	
	0.558491	
	0.533493	
	0.440572	
	0.309333	
	0.296669	
	0.365249	
	0.282854	
	0.241739	
	0.228418	
	0.257528	
	0.408009	
	0.620657	
	0.681672	
	0.715386	
	0.741700	
	0.755186	
	0.752719	
	0.729201	
	0.712919	
	0.700749	
	0.690224	
	0.679369	
	0.671311	
	0.655194	
	0.643023	
	0.623453	
	0.567372	
	0.244206	
	0.187961	
	0.181382	
	0.192072	
	0.209834	
	0.256047	
	0.316733	
	0.353408	
	0.364591	
	0.308346	
	0.236805	
	0.228747	
	0.321832	
	0.596481	
	0.629538	
	0.595165	
	0.604540	
	0.621972	
	0.561122	
	0.305550	
	0.295518	
	0.544347	
	0.632662	
	0.634636	
	0.644997	
	0.600099	
	0.308839	
	0.285321	
	0.320023	
	0.270684	
	0.253909	
	0.231872	
	0.234996	
	0.225129	
	0.203255	
	0.187303	
	0.190921	
	0.222826	
	0.239272	
	0.226609	
	0.204900	
	0.189276	
	0.188947	0.151646
	0.196513	
	0.205229	
	0.214603	
	0.229076	
	0.225622	
	0.206874	
	0.201446	
	0.192730	
	0.182040	
	0.182533	
	0.183685	
	0.184671	
	0.185658	
	0.189934	
	0.219373	
	0.248976	
	0.286966	
	0.467708	
	0.586942	
	0.596317	
	0.586285	
	0.567372	
	0.555201	
	0.522967	
	0.497147	
	0.515731	
	0.529874	
	0.528888	
	0.539907	
	0.546978	
	0.565398	
	0.556024	
	0.510961	
	0.399128	
	0.400937	
	0.398470	
	0.504383	
	0.525763	
	0.519185	
	0.498791	
	0.473464	
	0.365085	
	0.327917	
	0.295025	
	0.274631	
	0.255554	
	0.239272	
	0.249469	
	0.262955	
	0.285979	
	0.296834	
	0.318542	
	0.345514	
	0.358671	
	0.320352	
	0.309004	
	0.318049	
	0.340580	
	0.365743	
	0.455374	
	0.548787	
	0.576252	
	0.584640	
	0.593850	
	0.606020	
	0.605855	
	0.609802	
	0.606842	
	0.604211	
	0.599770	
	0.603060	
	0.604046	
	0.610296	
	0.607664	
	0.603060	
	0.582173	
	0.569016	
	0.548294	
	0.523132	
	0.488595	
	0.402911	
	0.363934	
	0.320352	
	0.300945	
	0.302590	
	0.302425	
	0.302919	
	0.319858	
	0.313444	
	0.308675	
	0.293544	
	0.291571	
	0.331206	
	0.399622	
	0.434652	
	0.459156	
	0.462446	
	0.404062	
	0.394359	
	0.360973	0.108773
	0.352421	
	0.355217	
	0.381366	
	0.506521	
	0.559313	
	0.578719	
	0.597961	
	0.610460	
	0.614572	
	0.628551	
	0.660785	
	0.678547	
	0.684632	
	0.684796	
	0.683974	
	0.667035	
	0.646642	
	0.642037	
	0.660785	
	0.674764	
	0.672626	
	0.657003	
	0.650260	
	0.636609	
	0.602402	
	0.339264	
	0.201611	
	0.177106	
	0.172172	
	0.173324	
	0.174639	
	0.176284	
	0.177106	
	0.180395	
	0.295847	
	0.404391	
	0.516389	
	0.557339	
	0.570003	
	0.588587	
	0.578884	
	0.584147	
	0.587929	
	0.564905	
	0.528230	
	0.551254	
	0.584147	
	0.601744	
	0.618190	
	0.628386	
	0.650589	
	0.669173	
	0.668844	
	0.649109	
	0.641050	
	0.630031	
	0.595659	
	0.320187	
	0.229405	
	0.196184	
	0.182205	
	0.176119	
	0.179409	
	0.200131	
	0.217728	
	0.233845	
	0.226116	
	0.236477	
	0.255554	
	0.257363	
	0.234010	
	0.226444	
	0.247331	
	0.280059	
	0.245193	
	0.237792	
	0.279894	
	0.300781	
	0.290420	
	0.304234	
	0.588258	
	0.663088	
	0.690717	
	0.680849	
	0.648615	
	0.620657	
	0.637267	
	0.659470	
	0.658154	
	0.629538	
	0.570167	
	0.381038	
	0.333508	
	0.364756	
	0.486128	
	0.317885	
	0.255061	
	0.231214	
	0.232365	
	0.255554	0.169570
	0.261146	
	0.272493	
	0.324134	
	0.513264	
	0.531190	
	0.589409	
	0.589080	
	0.539084	
	0.317556	
	0.266737	
	0.251607	
	0.250291	
	0.250127	
	0.251771	
	0.251936	
	0.257528	
	0.269862	
	0.287295	
	0.314266	
	0.347816	
	0.485635	
	0.551254	
	0.575266	
	0.565891	
	0.569510	
	0.553063	
	0.565727	
	0.565562	
	0.563753	
	0.541716	
	0.523625	
	0.486457	
	0.339264	
	0.317062	
	0.356697	
	0.371828	
	0.525598	
	0.554379	
	0.555037	
	0.564576	
	0.545992	
	0.369032	
	0.288775	
	0.267066	
	0.250785	
	0.238779	
	0.219373	
	0.233352	
	0.247495	
	0.262297	
	0.247166	
	0.220688	
	0.211807	
	0.219044	
	0.277756	
	0.353902	
	0.336633	
	0.331535	
	0.318871	
	0.336469	
	0.416232	
	0.537440	
	0.570167	
	0.566878	
	0.574279	
	0.584147	
	0.604704	
	0.607007	
	0.610131	
	0.601908	
	0.590232	
	0.584475	
	0.586285	
	0.580857	
	0.582173	
	0.568029	
	0.552077	
	0.532012	
	0.513428	
	0.500929	
	0.476918	
	0.400279	
	0.348310	
	0.320680	
	0.303412	
	0.290255	
	0.273480	
	0.275947	
	0.274960	
	0.281539	
	0.289762	
	0.294367	
	0.302919	
	0.322161	
	0.340745	
	0.372486	
	0.403404	
	0.487115	
	0.513922	
	0.531684	0.092579
	0.563589	
	0.578884	
	0.586942	
	0.591547	
	0.597632	
	0.599277	
	0.608816	
	0.606842	
	0.609802	
	0.604375	
	0.603224	
	0.603060	
	0.595494	
	0.586285	
	0.581844	
	0.565891	
	0.565234	
	0.544018	
	0.523789	
	0.486786	
	0.368374	
	0.334002	
	0.318214	
	0.310977	
	0.309333	
	0.300452	
	0.286144	
	0.280716	
	0.271178	
	0.276276	
	0.280881	
	0.288940	
	0.305057	
	0.313773	
	0.313773	
	0.339429	
	0.353079	
	0.423633	
	0.486950	
	0.512935	
	0.546978	
	0.565891	
	0.585133	
	0.600757	
	0.607335	
	0.605197	
	0.610954	
	0.607335	
	0.610625	
	0.602566	
	0.598784	
	0.592205	
	0.595165	
	0.587600	
	0.580857	
	0.566385	
	0.543525	
	0.515237	
	0.504876	
	0.513428	
	0.476260	
	0.441888	
	0.399786	
	0.419686	
	0.365907	
	0.330548	
	0.295682	
	0.292887	
	0.280223	
	0.272329	
	0.273809	
	0.286802	
	0.303741	
	0.336962	
	0.353408	
	0.406364	
	0.427087	
	0.479056	
	0.511619	
	0.532012	
	0.565069	
	0.570825	
	0.575595	
	0.579706	
	0.587436	
	0.594179	
	0.599277	
	0.591218	
	0.595165	
	0.586285	
	0.583160	
	0.585956	
	0.583982	
	0.582502	
	0.574608	
	0.563753	
	0.552735	
	0.536782	
	0.515402	
	0.472642	0.079605
	0.354724	
	0.318871	
	0.308510	
	0.304399	
	0.296011	
	0.285486	
	0.267560	
	0.268053	
	0.266244	
	0.271342	
	0.274467	
	0.282197	
	0.298807	
	0.310484	
	0.318214	
	0.330055	
	0.345185	
	0.382682	
	0.453236	
	0.541387	
	0.573621	
	0.589245	
	0.599935	
	0.602402	
	0.607335	
	0.608816	
	0.623617	
	0.624604	
	0.629538	
	0.624439	
	0.620492	
	0.614901	
	0.605855	
	0.590067	
	0.563096	
	0.508330	
	0.381531	
	0.353079	
	0.375446	
	0.374624	
	0.330055	
	0.322325	
	0.311142	
	0.304234	
	0.296011	
	0.304234	
	0.286802	
	0.288611	
	0.283841	
	0.293380	
	0.291900	
	0.296340	
	0.298478	
	0.304563	
	0.297820	
	0.311306	
	0.344198	
	0.393865	
	0.439750	
	0.457841	
	0.511784	
	0.547143	
	0.568852	
	0.574772	
	0.589080	
	0.595823	
	0.603717	
	0.606678	
	0.615887	
	0.617203	
	0.621315	
	0.618190	
	0.606349	
	0.591054	
	0.570990	
	0.557997	
	0.535302	
	0.507014	
	0.443039	
	0.397319	
	0.337949	
	0.325285	
	0.314760	
	0.312951	
	0.296011	
	0.291078	
	0.274631	
	0.274796	
	0.268711	
	0.278578	
	0.278250	
	0.283677	
	0.289597	
	0.303083	
	0.307853	
	0.336140	
	0.357355	
	0.426264	
	0.498956	
	0.526585	0.042092
	0.553886	
	0.564247	
	0.576088	
	0.581186	
	0.587765	
	0.593356	
	0.604540	
	0.610789	
	0.613092	
	0.609638	
	0.605526	
	0.603717	
	0.598784	
	0.591218	
	0.590396	
	0.576910	
	0.569181	
	0.555201	
	0.532670	
	0.516553	
	0.398141	
	0.349790	
	0.333673	
	0.313280	
	0.305057	
	0.295847	
	0.280059	
	0.281539	
	0.273809	
	0.281703	
	0.284335	
	0.289104	
	0.293380	
	0.308839	
	0.307688	
	0.326601	
	0.350119	
	0.426922	
	0.496324	
	0.520829	
	0.550925	
	0.562438	
	0.571976	
	0.582831	
	0.591218	
	0.599441	
	0.613092	
	0.613749	
	0.616545	
	0.610789	
	0.604704	
	0.601744	
	0.595823	
	0.588422	
	0.584640	
	0.576910	
	0.566220	
	0.553886	
	0.536617	
	0.507343	
	0.390741	
	0.345021	
	0.316404	
	0.314266	
	0.302919	
	0.294531	
	0.282032	
	0.282197	
	0.280059	
	0.283512	
	0.285650	
	0.288446	
	0.299629	
	0.322490	
	0.314266	
	0.327917	
	0.343047	
	0.399622	
	0.484977	
	0.519513	
	0.558162	
	0.569510	
	0.584640	
	0.587436	
	0.590232	
	0.587436	
	0.591876	
	0.593027	
	0.597797	
	0.600593	
	0.597961	
	0.596152	
	0.594836	
	0.585462	
	0.585462	
	0.569838	
	0.555530	
	0.536617	
	0.520171	
	0.472642	0.057097
	0.355875	
	0.326272	
	0.310484	
	0.297491	
	0.287788	
	0.282197	
	0.266902	
	0.270191	
	0.266902	
	0.268382	
	0.270849	
	0.274303	
	0.283677	
	0.293873	
	0.302425	
	0.315911	
	0.331206	
	0.363111	
	0.390412	
	0.462610	
	0.537933	
	0.550432	
	0.565234	
	0.573785	
	0.582666	
	0.591547	
	0.605197	
	0.602731	
	0.608816	
	0.603553	
	0.600922	
	0.596152	
	0.588916	
	0.582831	
	0.579377	
	0.566385	
	0.557668	
	0.532012	
	0.498134	
	0.441230	
	0.360151	
	0.333344	
	0.316240	
	0.303083	
	0.288611	
	0.278414	
	0.264435	
	0.267066	
	0.263777	
	0.266244	
	0.272329	
	0.272822	
	0.285650	
	0.296998	
	0.300781	
	0.315747	
	0.334495	
	0.355711	
	0.381038	
	0.449618	
	0.529052	
	0.546156	
	0.569838	
	0.574937	
	0.586120	
	0.587436	
	0.595823	
	0.599112	
	0.604046	
	0.599112	
	0.596974	
	0.594179	
	0.587765	
	0.581515	
	0.578061	
	0.563260	
	0.549774	
	0.533328	
	0.516060	
	0.468860	
	0.360644	
	0.334331	
	0.306043	
	0.296669	
	0.285157	
	0.287295	
	0.270027	
	0.268382	
	0.260817	
	0.263448	
	0.266902	
	0.268546	
	0.278578	
	0.289597	
	0.291406	
	0.308181	
	0.323312	
	0.346007	
	0.375117	
	0.423797	0.036114
	0.508988	
	0.538920	
	0.563589	
	0.570825	
	0.583982	
	0.589574	
	0.601415	
	0.601744	
	0.605362	
	0.602073	
	0.599441	
	0.597139	
	0.591712	
	0.582666	
	0.580528	
	0.569345	
	0.559806	
	0.536453	
	0.509810	
	0.473464	
	0.367058	
	0.334331	
	0.319858	
	0.302096	
	0.293215	
	0.286637	
	0.276769	
	0.273645	
	0.268053	
	0.273974	
	0.277756	
	0.275289	
	0.278085	
	0.288611	
	0.295353	
	0.311471	
	0.322654	
	0.348145	
	0.421988	
	0.492377	
	0.541551	
	0.554215	
	0.574279	
	0.581022	
	0.587436	
	0.593850	
	0.603060	
	0.603388	
	0.607171	
	0.602566	
	0.603060	
	0.601086	
	0.601579	
	0.591712	
	0.581022	
	0.561944	
	0.526750	
	0.483990	
	0.475109	
	0.535795	
	0.539578	
	0.528888	
	0.353079	
	0.298643	
	0.283512	
	0.279730	
	0.272165	
	0.274631	
	0.266737	
	0.271013	
	0.278907	
	0.291571	
	0.292558	
	0.292558	
	0.292229	
	0.290584	
	0.302261	
	0.332851	
	0.388274	
	0.502081	
	0.561780	
	0.588094	
	0.602402	
	0.607664	
	0.605855	
	0.608816	
	0.619012	
	0.617368	
	0.617697	
	0.611776	
	0.607993	
	0.596152	
	0.591054	
	0.571976	
	0.550597	
	0.523954	
	0.463761	
	0.373143	
	0.348968	
	0.335975	0.056975
	0.307030	
	0.302919	
	0.291242	
	0.284499	
	0.274960	
	0.271836	
	0.263119	
	0.263613	
	0.260817	
	0.264928	
	0.268382	
	0.275125	
	0.279072	
	0.290255	
	0.293544	
	0.312128	
	0.322654	
	0.343047	
	0.370348	
	0.394688	
	0.523296	
	0.543689	
	0.563753	
	0.570825	
	0.580528	
	0.586285	
	0.591383	
	0.593850	
	0.599277	
	0.597632	
	0.591218	
	0.585627	
	0.586285	
	0.578555	
	0.584147	
	0.571319	
	0.565562	
	0.547801	
	0.524118	
	0.478727	
	0.364427	
	0.335646	
	0.312128	
	0.302096	
	0.288611	
	0.281539	
	0.271507	
	0.263613	
	0.256870	
	0.256047	
	0.258185	
	0.264435	
	0.274631	
	0.297820	
	0.318049	
	0.350448	
	0.370348	
	0.396168	
	0.436790	
	0.491226	
	0.537933	
	0.549445	
	0.567372	
	0.566878	
	0.577568	
	0.582831	
	0.595001	
	0.595659	
	0.600593	
	0.600593	
	0.596810	
	0.594343	
	0.591054	
	0.582173	
	0.577404	
	0.564247	
	0.556024	
	0.528723	
	0.509975	
	0.472642	
	0.376268	
	0.340909	
	0.311306	
	0.302425	
	0.293709	
	0.291900	
	0.280059	
	0.273480	
	0.271342	
	0.274138	
	0.272822	
	0.274796	
	0.278907	
	0.289433	
	0.295682	
	0.311471	
	0.325285	
	0.350283	
	0.393208	
	0.458170	0.058920
	0.525105	
	0.543689	
	0.564905	
	0.572799	
	0.575759	
	0.578884	
	0.591876	
	0.594014	
	0.595494	
	0.595165	
	0.588587	
	0.588258	
	0.579871	
	0.576417	
	0.574608	
	0.563424	
	0.555037	
	0.530203	
	0.476754	
	0.409160	
	0.341074	
	0.323476	
	0.304728	
	0.294696	
	0.287788	
	0.282032	
	0.275783	
	0.266737	
	0.264928	
	0.262955	
	0.264764	
	0.264270	
	0.265093	
	0.273974	
	0.275125	
	0.296176	
	0.316733	
	0.357684	
	0.409654	
	0.485799	
	0.528559	
	0.543196	
	0.562109	
	0.567043	
	0.578226	
	0.586613	
	0.592534	
	0.598290	
	0.599606	
	0.597797	
	0.593356	
	0.597303	
	0.593850	
	0.582666	
	0.579542	
	0.563260	
	0.557175	
	0.539742	
	0.512935	
	0.469517	
	0.362289	
	0.332522	
	0.311800	
	0.303412	
	0.289762	
	0.289926	
	0.279072	
	0.272165	
	0.268382	
	0.269040	
	0.269862	
	0.272000	
	0.276605	
	0.288282	
	0.297820	
	0.308839	
	0.325450	
	0.351270	
	0.392056	
	0.453236	
	0.525763	
	0.538426	
	0.562767	
	0.571483	
	0.578719	
	0.588094	
	0.595165	
	0.597797	
	0.597303	
	0.598126	
	0.597632	
	0.595165	
	0.589080	
	0.582831	
	0.574772	
	0.565069	
	0.555859	
	0.537275	
	0.510797	
	0.477740	0.029596
	0.378406	
	0.337784	
	0.312293	
	0.299465	
	0.286144	
	0.282526	
	0.276112	
	0.272987	
	0.270849	
	0.274796	
	0.280881	
	0.281374	
	0.284006	
	0.293380	
	0.295025	
	0.315418	
	0.328246	
	0.365085	
	0.426264	
	0.471655	
	0.535960	
	0.545827	
	0.566714	
	0.575101	
	0.584969	
	0.585627	
	0.592698	
	0.601744	
	0.603717	
	0.604704	
	0.604704	
	0.599441	
	0.596481	
	0.586449	
	0.581680	
	0.570167	
	0.556188	
	0.539907	
	0.513099	
	0.482839	
	0.387616	
	0.346830	
	0.325450	
	0.321503	
	0.311964	
	0.293873	
	0.284664	
	0.274631	
	0.270520	
	0.267231	
	0.272000	
	0.277592	
	0.283512	
	0.288611	
	0.296011	
	0.308839	
	0.327423	
	0.365414	
	0.437448	
	0.496324	
	0.535631	
	0.552735	
	0.564576	
	0.572470	
	0.582502	
	0.585627	
	0.591218	
	0.596974	
	0.599441	
	0.603553	
	0.603717	
	0.603717	
	0.595330	
	0.584969	
	0.576746	
	0.570003	
	0.559642	
	0.545827	
	0.525270	
	0.504876	
	0.423633	
	0.357849	
	0.324134	
	0.308346	
	0.302590	
	0.289268	
	0.282197	
	0.272493	
	0.271671	
	0.271013	
	0.269369	
	0.275947	
	0.274960	
	0.286966	
	0.293380	
	0.306537	
	0.315582	
	0.326108	
	0.352750	
	0.371170	0.049350
	0.436132	
	0.525598	
	0.563918	
	0.572470	
	0.588587	
	0.594014	
	0.603224	
	0.604211	
	0.606513	
	0.609309	
	0.605033	
	0.605362	
	0.602895	
	0.592534	
	0.578555	
	0.568687	
	0.549281	
	0.533657	
	0.518856	
	0.491062	
	0.406693	
	0.339264	
	0.317391	
	0.310319	
	0.307195	
	0.294038	
	0.286144	
	0.273645	
	0.273809	
	0.270027	
	0.271836	
	0.279401	
	0.289433	
	0.297656	
	0.301932	
	0.314924	
	0.326930	
	0.351106	
	0.398470	
	0.454716	
	0.522967	
	0.549281	
	0.568852	
	0.578226	
	0.587271	
	0.589574	
	0.598290	
	0.602566	
	0.604540	
	0.602402	
	0.599277	
	0.596810	
	0.592370	
	0.587436	
	0.582009	
	0.569510	
	0.553557	
	0.529217	
	0.497311	
	0.457347	
	0.397813	
	0.369032	
	0.336633	
	0.322654	
	0.306372	
	0.289926	
	0.280388	
	0.274631	
	0.272329	
	0.272822	
	0.272822	
	0.280388	
	0.281539	
	0.296011	
	0.300945	
	0.313444	
	0.341896	
	0.369854	
	0.430869	
	0.484648	
	0.528230	
	0.548952	
	0.564905	
	0.574279	
	0.579213	
	0.589080	
	0.588751	
	0.601908	
	0.603060	
	0.602402	
	0.600099	
	0.597797	
	0.592370	
	0.588258	
	0.588258	
	0.575101	
	0.553721	
	0.543854	
	0.515566	
	0.473629	0.068191
	0.406200	
	0.344692	
	0.321667	
	0.302096	
	0.296505	
	0.286966	
	0.282526	
	0.271342	
	0.270849	
	0.272493	
	0.270520	
	0.278743	
	0.283841	
	0.296834	
	0.301439	
	0.314760	
	0.329561	
	0.356204	
	0.414588	
	0.459979	
	0.512935	
	0.545334	
	0.566385	
	0.571154	
	0.576910	
	0.584475	
	0.592863	
	0.601250	
	0.602895	
	0.600264	
	0.600428	
	0.599770	
	0.596481	
	0.589409	
	0.584640	
	0.573785	
	0.558491	
	0.543689	
	0.520665	
	0.501752	
	0.433500	
	0.358013	
	0.322325	
	0.310977	
	0.297820	
	0.296176	
	0.281539	
	0.275947	
	0.275125	
	0.272987	
	0.278085	
	0.280716	
	0.286473	
	0.293873	
	0.303248	
	0.315089	
	0.335646	
	0.355875	
	0.405049	
	0.458992	
	0.513428	
	0.549774	
	0.564411	
	0.575759	
	0.582009	
	0.587107	
	0.593850	
	0.600922	
	0.600593	
	0.602566	
	0.602237	
	0.602073	
	0.597797	
	0.590232	
	0.584640	
	0.575430	
	0.564247	
	0.550268	
	0.520171	
	0.490239	
	0.416561	
	0.347159	
	0.320187	
	0.307853	
	0.298478	
	0.292722	
	0.284828	
	0.271507	
	0.273974	
	0.269533	
	0.276441	
	0.277921	
	0.285815	
	0.294038	
	0.297327	
	0.313115	
	0.331864	
	0.347323	
	0.398141	
	0.461459	0.050169
	0.510468	
	0.544018	
	0.563096	
	0.571648	
	0.584147	
	0.588258	
	0.594179	
	0.601250	
	0.600099	
	0.599935	
	0.598619	
	0.599441	
	0.596481	
	0.587271	
	0.582831	
	0.572305	
	0.561122	
	0.541387	
	0.514909	
	0.466886	
	0.412450	
	0.346830	
	0.324463	
	0.304399	
	0.294038	
	0.284335	
	0.274631	
	0.266902	
