4.38	1.69
4.3805	1.69
4.381	1.69
4.3815	1.69
4.382	1.66
4.3825	1.69
4.383	1.69
4.3835	1.69
4.384	1.69
4.3845	1.69
4.385	1.71
4.3855	1.71
4.386	1.71
4.3865	1.71
4.387	1.71
4.3875	1.69
4.388	1.69
4.3885	1.69
4.389	1.69
4.3895	1.69
4.39	1.71
4.3905	1.71
4.391	1.69
4.3915	1.69
4.392	1.69
4.3925	1.69
4.393	1.69
4.3935	1.71
4.394	1.71
4.3945	1.69
4.395	1.69
4.3955	1.69
4.396	1.69
4.3965	1.69
4.397	1.69
4.3975	1.69
4.398	1.69
4.3985	1.69
4.399	1.69
4.3995	1.71
4.4	1.71
4.4005	1.69
4.401	1.71
4.4015	1.69
4.402	1.69
4.4025	1.71
4.403	1.69
4.4035	1.69
4.404	1.69
4.4045	1.69
4.405	1.69
4.4055	1.73
4.406	1.73
4.4065	1.71
4.407	1.71
4.4075	1.71
4.408	1.71
4.4085	1.71
4.409	1.69
4.4095	1.71
4.41	1.71
4.4105	1.69
4.411	1.71
4.4115	1.73
4.412	1.71
4.4125	1.69
4.413	1.71
4.4135	1.71
4.414	1.71
4.4145	1.71
4.415	1.71
4.4155	1.71
4.416	1.71
4.4165	1.71
4.417	1.71
4.4175	1.71
4.418	1.71
4.4185	1.73
4.419	1.71
4.4195	1.71
4.42	1.73
4.4205	1.73
4.421	1.73
4.4215	1.73
4.422	1.73
4.4225	1.73
4.423	1.73
4.4235	1.73
4.424	1.73
4.4245	1.73
4.425	1.73
4.4255	1.75
4.426	1.78
4.4265	1.78
4.427	1.78
4.4275	1.75
4.428	1.75
4.4285	1.75
4.429	1.75
4.4295	1.78
4.43	1.75
4.4305	1.78
4.431	1.75
4.4315	1.75
4.432	1.78
4.4325	1.78
4.433	1.75
4.4335	1.78
4.434	1.78
4.4345	1.78
4.435	1.78
4.4355	1.78
4.436	1.78
4.4365	1.78
4.437	1.78
4.4375	1.78
4.438	1.78
4.4385	1.78
4.439	1.80
4.4395	1.78
4.44	1.80
4.4405	1.80
4.441	1.80
4.4415	1.80
4.442	1.80
4.4425	1.80
4.443	1.80
4.4435	1.80
4.444	1.80
4.4445	1.80
4.445	1.80
4.4455	1.82
4.446	1.82
4.4465	1.82
4.447	1.82
4.4475	1.82
4.448	1.82
4.4485	1.82
4.449	1.82
4.4495	1.80
4.45	1.80
4.4505	1.82
4.451	1.82
4.4515	1.82
4.452	1.82
4.4525	1.82
4.453	1.82
4.4535	1.82
4.454	1.82
4.4545	1.82
4.455	1.82
4.4555	1.82
4.456	1.82
4.4565	1.82
4.457	1.82
4.4575	1.82
4.458	1.82
4.4585	1.84
4.459	1.82
4.4595	1.82
4.46	1.82
4.4605	1.82
4.461	1.82
4.4615	1.84
4.462	1.82
4.4625	1.82
4.463	1.84
4.4635	1.84
4.464	1.84
4.4645	1.84
4.465	1.84
4.4655	1.84
4.466	1.84
4.4665	1.87
4.467	1.82
4.4675	1.84
4.468	1.84
4.4685	1.82
4.469	1.82
4.4695	1.84
4.47	1.82
4.4705	1.82
4.471	1.84
4.4715	1.82
4.472	1.82
4.4725	1.84
4.473	1.84
4.4735	1.84
4.474	1.84
4.4745	1.82
4.475	1.82
4.4755	1.82
4.476	1.82
4.4765	1.84
4.477	1.82
4.4775	1.84
4.478	1.84
4.4785	1.82
4.479	1.82
4.4795	1.82
4.48	1.84
4.4805	1.84
4.481	1.84
4.4815	1.84
4.482	1.84
4.4825	1.84
4.483	1.84
4.4835	1.84
4.484	1.82
4.4845	1.82
4.485	1.87
4.4855	1.87
4.486	1.87
4.4865	1.87
4.487	1.84
4.4875	1.87
4.488	1.87
4.4885	1.84
4.489	1.84
4.4895	1.84
4.49	1.87
4.4905	1.84
4.491	1.87
4.4915	1.87
4.492	1.84
4.4925	1.87
4.493	1.87
4.4935	1.87
4.494	1.87
4.4945	1.87
4.495	1.87
4.4955	1.87
4.496	1.87
4.4965	1.87
4.497	1.87
4.4975	1.87
4.498	1.87
4.4985	1.87
4.499	1.87
4.4995	1.87
4.5	1.87
4.5005	1.89
4.501	1.87
4.5015	1.87
4.502	1.87
4.5025	1.89
4.503	1.87
4.5035	1.89
4.504	1.89
4.5045	1.89
4.505	1.91
4.5055	1.91
4.506	1.91
4.5065	1.89
4.507	1.89
4.5075	1.91
4.508	1.89
4.5085	1.89
4.509	1.89
4.5095	1.89
4.51	1.89
4.5105	1.89
4.511	1.91
4.5115	1.91
4.512	1.89
4.5125	1.89
4.513	1.91
4.5135	1.91
4.514	1.89
4.5145	1.91
4.515	1.91
4.5155	1.91
4.516	1.91
4.5165	1.91
4.517	1.91
4.5175	1.91
4.518	1.91
4.5185	1.91
4.519	1.91
4.5195	1.93
4.52	1.91
4.5205	1.91
4.521	1.93
4.5215	1.93
4.522	1.93
4.5225	1.93
4.523	1.93
4.5235	1.93
4.524	1.93
4.5245	1.95
4.525	1.95
4.5255	1.95
4.526	1.95
4.5265	1.95
4.527	1.95
4.5275	1.95
4.528	1.93
4.5285	1.93
4.529	1.95
4.5295	1.95
4.53	1.95
4.5305	1.98
4.531	1.95
4.5315	1.95
4.532	1.95
4.5325	1.98
4.533	1.98
4.5335	1.95
4.534	1.98
4.5345	1.98
4.535	1.98
4.5355	1.98
4.536	1.98
4.5365	1.98
4.537	1.98
4.5375	1.98
4.538	2.00
4.5385	2.00
4.539	1.98
4.5395	1.98
4.54	2.00
4.5405	2.00
4.541	2.00
4.5415	2.00
4.542	2.00
4.5425	2.00
4.543	2.02
4.5435	2.00
4.544	2.02
4.5445	2.02
4.545	2.02
4.5455	2.02
4.546	2.02
4.5465	2.02
4.547	2.02
4.5475	2.02
4.548	2.02
4.5485	2.02
4.549	2.02
4.5495	2.02
4.55	2.02
4.5505	2.04
4.551	2.04
4.5515	2.04
4.552	2.04
4.5525	2.02
4.553	2.02
4.5535	2.02
4.554	2.04
4.5545	2.04
4.555	2.04
4.5555	2.04
4.556	2.04
4.5565	2.04
4.557	2.04
4.5575	2.04
4.558	2.04
4.5585	2.04
4.559	2.07
4.5595	2.07
4.56	2.07
4.5605	2.07
4.561	2.07
4.5615	2.07
4.562	2.07
4.5625	2.07
4.563	2.07
4.5635	2.07
4.564	2.09
4.5645	2.11
4.565	2.11
4.5655	2.11
4.566	2.09
4.5665	2.09
4.567	2.09
4.5675	2.09
4.568	2.09
4.5685	2.09
4.569	2.09
4.5695	2.09
4.57	2.09
4.5705	2.09
4.571	2.09
4.5715	2.11
4.572	2.11
4.5725	2.11
4.573	2.09
4.5735	2.11
4.574	2.11
4.5745	2.11
4.575	2.13
4.5755	2.11
4.576	2.13
4.5765	2.11
4.577	2.11
4.5775	2.13
4.578	2.13
4.5785	2.13
4.579	2.13
4.5795	2.13
4.58	2.13
4.5805	2.13
4.581	2.13
4.5815	2.13
4.582	2.13
4.5825	2.13
4.583	2.16
4.5835	2.13
4.584	2.16
4.5845	2.18
4.585	2.18
4.5855	2.18
4.586	2.18
4.5865	2.16
4.587	2.16
4.5875	2.16
4.588	2.16
4.5885	2.16
4.589	2.16
4.5895	2.16
4.59	2.16
4.5905	2.16
4.591	2.16
4.5915	2.16
4.592	2.16
4.5925	2.16
4.593	2.18
4.5935	2.16
4.594	2.16
4.5945	2.18
4.595	2.18
4.5955	2.18
4.596	2.18
4.5965	2.18
4.597	2.18
4.5975	2.18
4.598	2.18
4.5985	2.18
4.599	2.18
4.5995	2.18
4.6	2.18
4.6005	2.20
4.601	2.18
4.6015	2.16
4.602	2.18
4.6025	2.18
4.603	2.18
4.6035	2.16
4.604	2.16
4.6045	2.20
4.605	2.20
4.6055	2.20
4.606	2.20
4.6065	2.18
4.607	2.20
4.6075	2.18
4.608	2.18
4.6085	2.18
4.609	2.18
4.6095	2.18
4.61	2.18
4.6105	2.18
4.611	2.18
4.6115	2.18
4.612	2.18
4.6125	2.18
4.613	2.18
4.6135	2.18
4.614	2.18
4.6145	2.18
4.615	2.18
4.6155	2.18
4.616	2.18
4.6165	2.18
4.617	2.18
4.6175	2.18
4.618	2.18
4.6185	2.18
4.619	2.18
4.6195	2.18
4.62	2.18
4.6205	2.18
4.621	2.18
4.6215	2.18
4.622	2.18
4.6225	2.18
4.623	2.18
4.6235	2.18
4.624	2.18
4.6245	2.18
4.625	2.20
4.6255	2.20
4.626	2.20
4.6265	2.20
4.627	2.20
4.6275	2.20
4.628	2.18
4.6285	2.20
4.629	2.18
4.6295	2.18
4.63	2.18
4.6305	2.20
4.631	2.18
4.6315	2.18
4.632	2.18
4.6325	2.20
4.633	2.20
4.6335	2.20
4.634	2.20
4.6345	2.20
4.635	2.20
4.6355	2.20
4.636	2.20
4.6365	2.22
4.637	2.22
4.6375	2.22
4.638	2.22
4.6385	2.22
4.639	2.22
4.6395	2.24
4.64	2.24
4.6405	2.24
4.641	2.24
4.6415	2.27
4.642	2.27
4.6425	2.27
4.643	2.27
4.6435	2.29
4.644	2.29
4.6445	2.31
4.645	2.31
4.6455	2.33
4.646	2.33
4.6465	2.33
4.647	2.36
4.6475	2.33
4.648	2.33
4.6485	2.36
4.649	2.36
4.6495	2.38
4.65	2.38
4.6505	2.40
4.651	2.40
4.6515	2.40
4.652	2.40
4.6525	2.40
4.653	2.42
4.6535	2.42
4.654	2.44
4.6545	2.47
4.655	2.47
4.6555	2.47
4.656	2.49
4.6565	2.49
4.657	2.51
4.6575	2.51
4.658	2.51
4.6585	2.53
4.659	2.53
4.6595	2.56
4.66	2.56
4.6605	2.56
4.661	2.58
4.6615	2.60
4.662	2.60
4.6625	2.62
4.663	2.62
4.6635	2.62
4.664	2.65
4.6645	2.67
4.665	2.69
4.6655	2.71
4.666	2.71
4.6665	2.71
4.667	2.73
4.6675	2.73
4.668	2.76
4.6685	2.78
4.669	2.80
4.6695	2.80
4.67	2.80
4.6705	2.82
4.671	2.85
4.6715	2.87
4.672	2.89
4.6725	2.91
4.673	2.94
4.6735	2.94
4.674	2.96
4.6745	2.98
4.675	3.00
4.6755	3.02
4.676	3.02
4.6765	3.05
4.677	3.07
4.6775	3.09
4.678	3.11
4.6785	3.11
4.679	3.14
4.6795	3.18
4.68	3.18
4.6805	3.23
4.681	3.23
4.6815	3.25
4.682	3.29
4.6825	3.31
4.683	3.31
4.6835	3.34
4.684	3.36
4.6845	3.38
4.685	3.43
4.6855	3.47
4.686	3.47
4.6865	3.47
4.687	3.49
4.6875	3.54
4.688	3.56
4.6885	3.58
4.689	3.60
4.6895	3.63
4.69	3.63
4.6905	3.65
4.691	3.67
4.6915	3.69
4.692	3.72
4.6925	3.74
4.693	3.76
4.6935	3.78
4.694	3.80
4.6945	3.83
4.695	3.85
4.6955	3.87
4.696	3.89
4.6965	3.92
4.697	3.94
4.6975	3.96
4.698	3.98
4.6985	4.01
4.699	4.01
4.6995	4.03
4.7	4.05
4.7005	4.07
4.701	4.09
4.7015	4.12
4.702	4.14
4.7025	4.16
4.703	4.18
4.7035	4.21
4.704	4.23
4.7045	4.27
4.705	4.32
4.7055	4.32
4.706	4.36
4.7065	4.41
4.707	4.43
4.7075	4.45
4.708	4.47
4.7085	4.50
4.709	4.52
4.7095	4.56
4.71	4.59
4.7105	4.61
4.711	4.63
4.7115	4.65
4.712	4.67
4.7125	4.72
4.713	4.76
4.7135	4.79
4.714	4.83
4.7145	4.85
4.715	4.90
4.7155	4.94
4.716	4.96
4.7165	5.01
4.717	5.05
4.7175	5.08
4.718	5.10
4.7185	5.14
4.719	5.16
4.7195	5.23
4.72	5.25
4.7205	5.30
4.721	5.34
4.7215	5.39
4.722	5.43
4.7225	5.45
4.723	5.50
4.7235	5.54
4.724	5.59
4.7245	5.66
4.725	5.70
4.7255	5.79
4.726	5.86
4.7265	5.88
4.727	5.92
4.7275	5.99
4.728	6.03
4.7285	6.08
4.729	6.15
4.7295	6.19
4.73	6.26
4.7305	6.32
4.731	6.37
4.7315	6.44
4.732	6.50
4.7325	6.57
4.733	6.64
4.7335	6.70
4.734	6.79
4.7345	6.86
4.735	6.93
4.7355	6.99
4.736	7.08
4.7365	7.15
4.737	7.22
4.7375	7.30
4.738	7.37
4.7385	7.46
4.739	7.55
4.7395	7.59
4.74	7.68
4.7405	7.77
4.741	7.84
4.7415	7.95
4.742	8.04
4.7425	8.11
4.743	8.20
4.7435	8.29
4.744	8.38
4.7445	8.44
4.745	8.55
4.7455	8.69
4.746	8.80
4.7465	8.89
4.747	8.98
4.7475	9.07
4.748	9.16
4.7485	9.24
4.749	9.33
4.7495	9.45
4.75	9.53
4.7505	9.62
4.751	9.71
4.7515	9.82
4.752	9.91
4.7525	10.02
4.753	10.14
4.7535	10.23
4.754	10.34
4.7545	10.47
4.755	10.58
4.7555	10.69
4.756	10.81
4.7565	10.92
4.757	11.03
4.7575	11.14
4.758	11.21
4.7585	11.34
4.759	11.45
4.7595	11.56
4.76	11.67
4.7605	11.79
4.761	11.88
4.7615	11.99
4.762	12.10
4.7625	12.21
4.763	12.30
4.7635	12.43
4.764	12.52
4.7645	12.66
4.765	12.77
4.7655	12.88
4.766	13.01
4.7665	13.17
4.767	13.26
4.7675	13.37
4.768	13.48
4.7685	13.59
4.769	13.68
4.7695	13.79
4.77	13.90
4.7705	14.02
4.771	14.13
4.7715	14.22
4.772	14.33
4.7725	14.44
4.773	14.57
4.7735	14.66
4.774	14.77
4.7745	14.88
4.775	15.00
4.7755	15.15
4.776	15.26
4.7765	15.38
4.777	15.51
4.7775	15.60
4.778	15.71
4.7785	15.80
4.779	15.91
4.7795	16.02
4.78	16.13
4.7805	16.22
4.781	16.33
4.7815	16.42
4.782	16.51
4.7825	16.62
4.783	16.74
4.7835	16.82
4.784	16.91
4.7845	17.05
4.785	17.14
4.7855	17.25
4.786	17.38
4.7865	17.52
4.787	17.65
4.7875	17.76
4.788	17.85
4.7885	17.96
4.789	18.05
4.7895	18.16
4.79	18.25
4.7905	18.36
4.791	18.47
4.7915	18.56
4.792	18.70
4.7925	18.81
4.793	18.88
4.7935	19.01
4.794	19.12
4.7945	19.23
4.795	19.37
4.7955	19.48
4.796	19.61
4.7965	19.74
4.797	19.86
4.7975	19.97
4.798	20.08
4.7985	20.19
4.799	20.30
4.7995	20.41
4.8	20.55
4.8005	20.64
4.801	20.73
4.8015	20.86
4.802	20.97
4.8025	21.10
4.803	21.22
4.8035	21.33
4.804	21.44
4.8045	21.57
4.805	21.71
4.8055	21.89
4.806	22.00
4.8065	22.15
4.807	22.31
4.8075	22.40
4.808	22.51
4.8085	22.64
4.809	22.73
4.8095	22.87
4.81	22.98
4.8105	23.09
4.811	23.22
4.8115	23.36
4.812	23.47
4.8125	23.60
4.813	23.71
4.8135	23.80
4.814	23.94
4.8145	24.07
4.815	24.25
4.8155	24.38
4.816	24.49
4.8165	24.65
4.817	24.76
4.8175	24.89
4.818	25.03
4.8185	25.14
4.819	25.27
4.8195	25.41
4.82	25.52
4.8205	25.65
4.821	25.76
4.8215	25.90
4.822	26.03
4.8225	26.17
4.823	26.30
4.8235	26.43
4.824	26.54
4.8245	26.70
4.825	26.83
4.8255	27.03
4.826	27.21
4.8265	27.37
4.827	27.57
4.8275	27.73
4.828	27.84
4.8285	27.99
4.829	28.15
4.8295	28.28
4.83	28.46
4.8305	28.60
4.831	28.73
4.8315	28.91
4.832	29.04
4.8325	29.20
4.833	29.35
4.8335	29.49
4.834	29.64
4.8345	29.80
4.835	29.98
4.8355	30.18
4.836	30.36
4.8365	30.53
4.837	30.67
4.8375	30.85
4.838	31.00
4.8385	31.14
4.839	31.29
4.8395	31.47
4.84	31.58
4.8405	31.72
4.841	31.89
4.8415	32.03
4.842	32.18
4.8425	32.32
4.843	32.47
4.8435	32.61
4.844	32.76
4.8445	32.88
4.845	33.05
4.8455	33.39
4.846	33.57
4.8465	33.72
4.847	33.90
4.8475	34.04
4.848	34.19
4.8485	34.35
4.849	34.48
4.8495	34.59
4.85	34.75
4.8505	34.90
4.851	35.04
4.8515	35.17
4.852	35.31
4.8525	35.44
4.853	35.57
4.8535	35.71
4.854	35.84
4.8545	35.97
4.855	36.15
4.8555	36.31
4.856	36.49
4.8565	36.62
4.857	36.73
4.8575	36.84
4.858	36.98
4.8585	37.09
4.859	37.22
4.8595	37.33
4.86	37.45
4.8605	37.56
4.861	37.67
4.8615	37.80
4.862	37.91
4.8625	38.03
4.863	38.14
4.8635	38.27
4.864	38.38
4.8645	38.47
4.865	38.74
4.8655	39.03
4.866	39.14
4.8665	39.30
4.867	39.41
4.8675	39.52
4.868	39.63
4.8685	39.72
4.869	39.81
4.8695	39.92
4.87	40.03
4.8705	40.14
4.871	40.26
4.8715	40.37
4.872	40.46
4.8725	40.57
4.873	40.70
4.8735	40.79
4.874	40.88
4.8745	41.04
4.875	41.19
4.8755	41.33
4.876	41.46
4.8765	41.57
4.877	41.68
4.8775	41.79
4.878	41.90
4.8785	42.02
4.879	42.11
4.8795	42.22
4.88	42.33
4.8805	42.42
4.881	42.53
4.8815	42.62
4.882	42.73
4.8825	42.84
4.883	42.93
4.8835	43.06
4.884	43.13
4.8845	43.31
4.885	43.69
4.8855	43.89
4.886	44.02
4.8865	44.16
4.887	44.27
4.8875	44.38
4.888	44.51
4.8885	44.62
4.889	44.74
4.8895	44.87
4.89	45.00
4.8905	45.14
4.891	45.27
4.8915	45.40
4.892	45.56
4.8925	45.69
4.893	45.85
4.8935	45.98
4.894	46.16
4.8945	46.36
4.895	46.52
4.8955	46.70
4.896	46.85
4.8965	47.01
4.897	47.14
4.8975	47.32
4.898	47.48
4.8985	47.61
4.899	47.77
4.8995	47.92
4.9	48.08
4.9005	48.24
4.901	48.39
4.9015	48.55
4.902	48.73
4.9025	48.86
4.903	49.04
4.9035	49.19
4.904	49.35
4.9045	49.73
4.905	50.11
4.9055	50.33
4.906	50.51
4.9065	50.67
4.907	50.82
4.9075	51.00
4.908	51.13
4.9085	51.29
4.909	51.45
4.9095	51.60
4.91	51.76
4.9105	51.91
4.911	52.07
4.9115	52.20
4.912	52.36
4.9125	52.52
4.913	52.65
4.9135	52.78
4.914	52.98
4.9145	53.19
4.915	53.34
4.9155	53.50
4.916	53.63
4.9165	53.79
4.917	53.92
4.9175	54.05
4.918	54.17
4.9185	54.32
4.919	54.46
4.9195	54.57
4.92	54.70
4.9205	54.84
4.921	54.97
4.9215	55.10
4.922	55.21
4.9225	55.35
4.923	55.48
4.9235	55.57
4.924	55.82
4.9245	56.22
4.925	56.51
4.9255	56.69
4.926	56.82
4.9265	56.93
4.927	57.04
4.9275	57.18
4.928	57.29
4.9285	57.40
4.929	57.51
4.9295	57.64
4.93	57.76
4.9305	57.87
4.931	57.98
4.9315	58.09
4.932	58.20
4.9325	58.31
4.933	58.42
4.9335	58.56
4.934	58.71
4.9345	58.83
4.935	58.98
4.9355	59.09
4.936	59.18
4.9365	59.27
4.937	59.38
4.9375	59.47
4.938	59.56
4.9385	59.65
4.939	59.74
4.9395	59.83
4.94	59.92
4.9405	60.01
4.941	60.10
4.9415	60.16
4.942	60.25
4.9425	60.36
4.943	60.39
4.9435	60.56
4.944	60.88
4.9445	61.14
4.945	61.37
4.9455	61.52
4.946	61.61
4.9465	61.70
4.947	61.77
4.9475	61.84
4.948	61.95
4.9485	62.01
4.949	62.08
4.9495	62.19
4.95	62.26
4.9505	62.35
4.951	62.44
4.9515	62.50
4.952	62.62
4.9525	62.68
4.953	62.79
4.9535	62.95
4.954	63.08
4.9545	63.17
4.955	63.31
4.9555	63.40
4.956	63.49
4.9565	63.57
4.957	63.69
4.9575	63.77
4.958	63.89
4.9585	63.98
4.959	64.06
4.9595	64.18
4.96	64.27
4.9605	64.35
4.961	64.44
4.9615	64.51
4.962	64.62
4.9625	64.69
4.963	64.78
4.9635	65.05
4.964	65.36
4.9645	65.58
4.965	65.83
4.9655	65.96
4.966	66.03
4.9665	66.09
4.967	66.14
4.9675	66.23
4.968	66.32
4.9685	66.38
4.969	66.45
4.9695	66.54
4.97	66.61
4.9705	66.65
4.971	66.74
4.9715	66.81
4.972	66.87
4.9725	66.94
4.973	67.05
4.9735	67.14
4.974	67.23
4.9745	67.34
4.975	67.43
4.9755	67.50
4.976	67.56
4.9765	67.63
4.977	67.72
4.9775	67.77
4.978	67.83
4.9785	67.90
4.979	67.97
4.9795	68.06
4.98	68.12
4.9805	68.19
4.981	68.26
4.9815	68.32
4.982	68.39
4.9825	68.50
4.983	68.55
4.9835	68.70
4.984	68.99
4.9845	69.24
4.985	69.46
4.9855	69.68
4.986	69.82
4.9865	69.88
4.987	69.95
4.9875	70.02
4.988	70.11
4.9885	70.20
4.989	70.26
4.9895	70.33
4.99	70.42
4.9905	70.49
4.991	70.57
4.9915	70.64
4.992	70.73
4.9925	70.80
4.993	70.86
4.9935	71.00
4.994	71.09
4.9945	71.18
4.995	71.31
4.9955	71.40
4.996	71.47
4.9965	71.56
4.997	71.60
4.9975	71.67
4.998	71.76
4.9985	71.82
4.999	71.87
4.9995	71.93
5	72.02
5.0005	72.07
5.001	72.14
5.0015	72.20
5.002	72.25
5.0025	72.31
5.003	72.36
5.0035	72.58
5.004	72.85
5.0045	73.05
5.005	73.29
5.0055	73.47
5.006	73.52
5.0065	73.58
5.007	73.63
5.0075	73.70
5.008	73.76
5.0085	73.81
5.009	73.87
5.0095	73.94
5.01	73.99
5.0105	74.05
5.011	74.10
5.0115	74.12
5.012	74.19
5.0125	74.23
5.013	74.30
5.0135	74.39
5.014	74.45
5.0145	74.52
5.015	74.61
5.0155	74.63
5.016	74.68
5.0165	74.70
5.017	74.72
5.0175	74.77
5.018	74.79
5.0185	74.81
5.019	74.85
5.0195	74.88
5.02	74.90
5.0205	74.92
5.021	74.94
5.0215	74.97
5.022	74.99
5.0225	74.99
5.023	75.03
5.0235	75.26
5.024	75.46
5.0245	75.66
5.025	75.86
5.0255	75.88
5.026	75.88
5.0265	75.88
5.027	75.88
5.0275	75.88
5.028	75.88
5.0285	75.88
5.029	75.88
5.0295	75.86
5.03	75.88
5.0305	75.88
5.031	75.88
5.0315	75.86
5.032	75.86
5.0325	75.88
5.033	75.95
5.0335	75.97
5.034	75.99
5.0345	76.08
5.035	76.10
5.0355	76.13
5.036	76.15
5.0365	76.15
5.037	76.17
5.0375	76.19
5.038	76.21
5.0385	76.21
5.039	76.24
5.0395	76.26
5.04	76.28
5.0405	76.28
5.041	76.28
5.0415	76.30
5.042	76.33
5.0425	76.35
5.043	76.35
5.0435	76.44
5.044	76.71
5.0445	76.86
5.045	77.00
5.0455	77.20
5.046	77.24
5.0465	77.24
5.047	77.26
5.0475	77.26
5.048	77.26
5.0485	77.28
5.049	77.31
5.0495	77.33
5.05	77.33
5.0505	77.35
5.051	77.37
5.0515	77.40
5.052	77.44
5.0525	77.44
5.053	77.46
5.0535	77.57
5.054	77.62
5.0545	77.64
5.055	77.75
5.0555	77.80
5.056	77.82
5.0565	77.84
5.057	77.86
5.0575	77.91
5.058	77.93
5.0585	77.98
5.059	77.98
5.0595	78.00
5.06	78.04
5.0605	78.07
5.061	78.09
5.0615	78.09
5.062	78.11
5.0625	78.13
5.063	78.15
5.0635	78.36
5.064	78.56
5.0645	78.69
5.065	78.96
5.0655	79.11
5.066	79.09
5.0665	79.11
5.067	79.11
5.0675	79.11
5.068	79.14
5.0685	79.14
5.069	79.16
5.0695	79.16
5.07	79.18
5.0705	79.20
5.071	79.22
5.0715	79.25
5.072	79.27
5.0725	79.31
5.073	79.36
5.0735	79.43
5.074	79.47
5.0745	79.58
5.075	79.67
5.0755	79.71
5.076	79.76
5.0765	79.80
5.077	79.85
5.0775	79.92
5.078	79.96
5.0785	80.03
5.079	80.07
5.0795	80.14
5.08	80.21
5.0805	80.27
5.081	80.34
5.0815	80.41
5.082	80.45
5.0825	80.52
5.083	80.58
5.0835	80.67
5.084	80.92
5.0845	81.14
5.085	81.32
5.0855	81.61
5.086	81.79
5.0865	81.86
5.087	81.88
5.0875	81.92
5.088	81.99
5.0885	82.03
5.089	82.08
5.0895	82.12
5.09	82.17
5.0905	82.21
5.091	82.26
5.0915	82.28
5.092	82.35
5.0925	82.39
5.093	82.41
5.0935	82.48
5.094	82.57
5.0945	82.61
5.095	82.72
5.0955	82.81
5.096	82.81
5.0965	82.86
5.097	82.90
5.0975	82.93
5.098	82.95
5.0985	82.99
5.099	83.01
5.0995	83.04
5.1	83.08
5.1005	83.10
5.101	83.15
5.1015	83.17
5.102	83.19
5.1025	83.24
5.103	83.26
5.1035	83.35
5.104	83.59
5.1045	83.77
5.105	83.97
5.1055	84.26
5.106	84.35
5.1065	84.35
5.107	84.37
5.1075	84.40
5.108	84.42
5.1085	84.44
5.109	84.46
5.1095	84.46
5.11	84.51
5.1105	84.51
5.111	84.51
5.1115	84.53
5.112	84.55
5.1125	84.55
5.113	84.57
5.1135	84.62
5.114	84.64
5.1145	84.69
5.115	84.78
5.1155	84.80
5.116	84.80
5.1165	84.82
5.117	84.82
5.1175	84.82
5.118	84.82
5.1185	84.82
5.119	84.82
5.1195	84.82
5.12	84.82
5.1205	84.82
5.121	84.82
5.1215	84.82
5.122	84.80
5.1225	84.80
5.123	84.80
5.1235	84.78
5.124	84.84
5.1245	85.04
5.125	85.15
5.1255	85.38
5.126	85.56
5.1265	85.53
5.127	85.53
5.1275	85.49
5.128	85.47
5.1285	85.42
5.129	85.38
5.1295	85.36
5.13	85.31
5.1305	85.27
5.131	85.22
5.1315	85.18
5.132	85.15
5.1325	85.09
5.133	85.04
5.1335	85.02
5.134	85.02
5.1345	84.98
5.135	84.98
5.1355	85.00
5.136	84.95
5.1365	84.89
5.137	84.84
5.1375	84.78
5.138	84.71
5.1385	84.64
5.139	84.57
5.1395	84.49
5.14	84.40
5.1405	84.31
5.141	84.24
5.1415	84.15
5.142	84.04
5.1425	83.95
5.143	83.84
5.1435	83.73
5.144	83.79
5.1445	83.86
5.145	83.88
5.1455	84.02
5.146	84.00
5.1465	83.88
5.147	83.77
5.1475	83.64
5.148	83.53
5.1485	83.42
5.149	83.28
5.1495	83.19
5.15	83.10
5.1505	83.01
5.151	82.93
5.1515	82.84
5.152	82.75
5.1525	82.72
5.153	82.66
5.1535	82.66
5.154	82.66
5.1545	82.64
5.155	82.70
5.1555	82.75
5.156	82.72
5.1565	82.75
5.157	82.75
5.1575	82.75
5.158	82.77
5.1585	82.79
5.159	82.81
5.1595	82.88
5.16	82.90
5.1605	82.95
5.161	83.01
5.1615	83.06
5.162	83.13
5.1625	83.19
5.163	83.26
5.1635	83.39
5.164	83.66
5.1645	83.88
5.165	84.11
5.1655	84.40
5.166	84.53
5.1665	84.57
5.167	84.66
5.1675	84.73
5.168	84.82
5.1685	84.89
5.169	84.93
5.1695	85.00
5.17	85.07
5.1705	85.13
5.171	85.18
5.1715	85.24
5.172	85.29
5.1725	85.36
5.173	85.40
5.1735	85.49
5.174	85.58
5.1745	85.65
5.175	85.78
5.1755	85.85
5.176	85.89
5.1765	85.93
5.177	85.98
5.1775	86.00
5.178	86.02
5.1785	86.07
5.179	86.09
5.1795	86.14
5.18	86.18
5.1805	86.20
5.181	86.22
5.1815	86.25
5.182	86.27
5.1825	86.31
5.183	86.31
5.1835	86.49
5.184	86.69
5.1845	86.83
5.185	87.09
5.1855	87.27
5.186	87.29
5.1865	87.29
5.187	87.32
5.1875	87.34
5.188	87.36
5.1885	87.34
5.189	87.34
5.1895	87.34
5.19	87.36
5.1905	87.34
5.191	87.34
5.1915	87.32
5.192	87.32
5.1925	87.29
5.193	87.29
5.1935	87.32
5.194	87.32
5.1945	87.36
5.195	87.36
5.1955	87.32
5.196	87.27
5.1965	87.25
5.197	87.21
5.1975	87.14
5.198	87.07
5.1985	87.03
5.199	86.96
5.1995	86.89
5.2	86.83
5.2005	86.76
5.201	86.69
5.2015	86.60
5.202	86.54
5.2025	86.45
5.203	86.40
5.2035	86.51
5.204	86.56
5.2045	86.63
5.205	86.78
5.2055	86.72
5.206	86.60
5.2065	86.49
5.207	86.40
5.2075	86.29
5.208	86.18
5.2085	86.07
5.209	85.93
5.2095	85.82
5.21	85.69
5.2105	85.58
5.211	85.44
5.2115	85.31
5.212	85.20
5.2125	85.07
5.213	84.98
5.2135	84.86
5.214	84.75
5.2145	84.71
5.215	84.62
5.2155	84.46
5.216	84.31
5.2165	84.15
5.217	84.02
5.2175	83.86
5.218	83.73
5.2185	83.57
5.219	83.42
5.2195	83.28
5.22	83.15
5.2205	83.01
5.221	82.86
5.2215	82.72
5.222	82.59
5.2225	82.46
5.223	82.48
5.2235	82.55
5.224	82.55
5.2245	82.68
5.225	82.72
5.2255	82.61
5.226	82.55
5.2265	82.46
5.227	82.39
5.2275	82.35
5.228	82.28
5.2285	82.23
5.229	82.19
5.2295	82.14
5.23	82.12
5.2305	82.08
5.231	82.06
5.2315	82.03
5.232	82.01
5.2325	82.03
5.233	82.08
5.2335	82.08
5.234	82.14
5.2345	82.21
5.235	82.21
5.2355	82.21
5.236	82.21
5.2365	82.21
5.237	82.21
5.2375	82.23
5.238	82.23
5.2385	82.26
5.239	82.28
5.2395	82.28
5.24	82.30
5.2405	82.32
5.241	82.35
5.2415	82.35
5.242	82.37
5.2425	82.41
5.243	82.61
5.2435	82.77
5.244	82.97
5.2445	83.24
5.245	83.24
5.2455	83.26
5.246	83.28
5.2465	83.30
5.247	83.33
5.2475	83.35
5.248	83.37
5.2485	83.44
5.249	83.46
5.2495	83.46
5.25	83.50
5.2505	83.53
5.251	83.55
5.2515	83.57
5.252	83.59
5.2525	83.68
5.253	83.73
5.2535	83.79
5.254	83.91
5.2545	83.93
5.255	83.95
5.2555	84.00
5.256	84.00
5.2565	84.02
5.257	84.06
5.2575	84.08
5.258	84.13
5.2585	84.17
5.259	84.20
5.2595	84.22
5.26	84.26
5.2605	84.31
5.261	84.31
5.2615	84.35
5.262	84.40
5.2625	84.55
5.263	84.80
5.2635	84.93
5.264	85.18
5.2645	85.38
5.265	85.38
5.2655	85.44
5.266	85.47
5.2665	85.51
5.267	85.56
5.2675	85.58
5.268	85.60
5.2685	85.67
5.269	85.71
5.2695	85.73
5.27	85.78
5.2705	85.80
5.271	85.82
5.2715	85.82
5.272	85.89
5.2725	85.96
5.273	85.98
5.2735	86.05
5.274	86.14
5.2745	86.14
5.275	86.16
5.2755	86.16
5.276	86.16
5.2765	86.16
5.277	86.16
5.2775	86.16
5.278	86.14
5.2785	86.14
5.279	86.11
5.2795	86.09
5.28	86.07
5.2805	86.07
5.281	86.02
5.2815	86.00
5.282	85.98
5.2825	85.93
5.283	86.05
5.2835	86.20
5.284	86.22
5.2845	86.40
5.285	86.51
5.2855	86.43
5.286	86.40
5.2865	86.36
5.287	86.27
5.2875	86.22
5.288	86.18
5.2885	86.11
5.289	86.07
5.2895	86.00
5.29	85.91
5.2905	85.87
5.291	85.80
5.2915	85.71
5.292	85.62
5.2925	85.58
5.293	85.53
5.2935	85.47
5.294	85.42
5.2945	85.40
5.295	85.31
5.2955	85.22
5.296	85.13
5.2965	85.02
5.297	84.91
5.2975	84.80
5.298	84.69
5.2985	84.55
5.299	84.42
5.2995	84.31
5.3	84.15
5.3005	84.04
5.301	83.91
5.3015	83.77
5.302	83.64
5.3025	83.50
5.303	83.55
5.3035	83.57
5.304	83.55
5.3045	83.66
5.305	83.59
5.3055	83.46
5.306	83.35
5.3065	83.19
5.307	83.08
5.3075	82.97
5.308	82.86
5.3085	82.72
5.309	82.61
5.3095	82.50
5.31	82.41
5.3105	82.32
5.311	82.21
5.3115	82.12
5.312	82.03
5.3125	81.97
5.313	81.92
5.3135	81.83
5.314	81.81
5.3145	81.79
5.315	81.70
5.3155	81.63
5.316	81.57
5.3165	81.50
5.317	81.41
5.3175	81.34
5.318	81.28
5.3185	81.21
5.319	81.16
5.3195	81.10
5.32	81.05
5.3205	81.01
5.321	80.96
5.3215	80.94
5.322	80.90
5.3225	80.92
5.323	81.10
5.3235	81.21
5.324	81.34
5.3245	81.57
5.325	81.52
5.3255	81.50
5.326	81.54
5.3265	81.52
5.327	81.54
5.3275	81.57
5.328	81.59
5.3285	81.61
5.329	81.63
5.3295	81.68
5.33	81.72
5.3305	81.74
5.331	81.79
5.3315	81.83
5.332	81.88
5.3325	81.97
5.333	82.01
5.3335	82.06
5.334	82.14
5.3345	82.21
5.335	82.23
5.3355	82.26
5.336	82.30
5.3365	82.30
5.337	82.35
5.3375	82.35
5.338	82.37
5.3385	82.39
5.339	82.41
5.3395	82.41
5.34	82.43
5.3405	82.46
5.341	82.46
5.3415	82.48
5.342	82.48
5.3425	82.61
5.343	82.79
5.3435	82.88
5.344	83.13
5.3445	83.28
5.345	83.22
5.3455	83.26
5.346	83.26
5.3465	83.28
5.347	83.28
5.3475	83.28
5.348	83.30
5.3485	83.30
5.349	83.33
5.3495	83.30
5.35	83.30
5.3505	83.30
5.351	83.33
5.3515	83.33
5.352	83.35
5.3525	83.37
5.353	83.37
5.3535	83.39
5.354	83.44
5.3545	83.42
5.355	83.39
5.3555	83.37
5.356	83.37
5.3565	83.33
5.357	83.30
5.3575	83.28
5.358	83.22
5.3585	83.17
5.359	83.15
5.3595	83.08
5.36	83.04
5.3605	82.99
5.361	82.93
5.3615	82.86
5.362	82.84
5.3625	82.93
5.363	82.97
5.3635	83.04
5.364	83.19
5.3645	83.15
5.365	83.01
5.3655	82.97
5.366	82.86
5.3665	82.79
5.367	82.72
5.3675	82.61
5.368	82.52
5.3685	82.41
5.369	82.32
5.3695	82.21
5.37	82.10
5.3705	82.01
5.371	81.92
5.3715	81.81
5.372	81.74
5.3725	81.65
5.373	81.54
5.3735	81.48
5.374	81.41
5.3745	81.30
5.375	81.16
5.3755	81.05
5.376	80.94
5.3765	80.81
5.377	80.67
5.3775	80.52
5.378	80.38
5.3785	80.25
5.379	80.12
5.3795	79.96
5.38	79.80
5.3805	79.65
5.381	79.51
5.3815	79.34
5.382	79.25
5.3825	79.29
5.383	79.22
5.3835	79.25
5.384	79.25
5.3845	79.02
5.385	78.87
5.3855	78.71
5.386	78.53
5.3865	78.40
5.387	78.22
5.3875	78.04
5.388	77.89
5.3885	77.73
5.389	77.55
5.3895	77.42
5.39	77.28
5.3905	77.13
5.391	77.00
5.3915	76.86
5.392	76.79
5.3925	76.68
5.393	76.64
5.3935	76.59
5.394	76.55
5.3945	76.48
5.395	76.44
5.3955	76.37
5.396	76.33
5.3965	76.28
5.397	76.26
5.3975	76.26
5.398	76.24
5.3985	76.21
5.399	76.21
5.3995	76.21
5.4	76.21
5.4005	76.24
5.401	76.26
5.4015	76.26
5.402	76.42
5.4025	76.62
5.403	76.71
5.4035	76.97
5.404	77.13
5.4045	77.13
5.405	77.13
5.4055	77.15
5.406	77.22
5.4065	77.26
5.407	77.31
5.4075	77.37
5.408	77.42
5.4085	77.46
5.409	77.51
5.4095	77.55
5.41	77.57
5.4105	77.62
5.411	77.66
5.4115	77.71
5.412	77.80
5.4125	77.84
5.413	77.93
5.4135	78.02
5.414	78.09
5.4145	78.15
5.415	78.18
5.4155	78.22
5.416	78.27
5.4165	78.31
5.417	78.36
5.4175	78.40
5.418	78.47
5.4185	78.51
5.419	78.58
5.4195	78.64
5.42	78.71
5.4205	78.78
5.421	78.82
5.4215	78.91
5.422	79.14
5.4225	79.34
5.423	79.54
5.4235	79.83
5.424	79.96
5.4245	79.96
5.425	80.00
5.4255	80.07
5.426	80.18
5.4265	80.25
5.427	80.34
5.4275	80.41
5.428	80.52
5.4285	80.58
5.429	80.65
5.4295	80.74
5.43	80.81
5.4305	80.85
5.431	80.92
5.4315	81.03
5.432	81.12
5.4325	81.19
5.433	81.32
5.4335	81.41
5.434	81.48
5.4345	81.52
5.435	81.57
5.4355	81.61
5.436	81.65
5.4365	81.68
5.437	81.72
5.4375	81.74
5.438	81.79
5.4385	81.83
5.439	81.88
5.4395	81.90
5.44	81.90
5.4405	81.94
5.441	81.94
5.4415	82.01
5.442	82.19
5.4425	82.28
5.443	82.46
5.4435	82.68
5.444	82.66
5.4445	82.59
5.445	82.61
5.4455	82.64
5.446	82.64
5.4465	82.61
5.447	82.61
5.4475	82.64
5.448	82.59
5.4485	82.59
5.449	82.57
5.4495	82.55
5.45	82.50
5.4505	82.50
5.451	82.46
5.4515	82.48
5.452	82.46
5.4525	82.43
5.453	82.46
5.4535	82.43
5.454	82.39
5.4545	82.37
5.455	82.28
5.4555	82.21
5.456	82.17
5.4565	82.10
5.457	82.03
5.4575	81.94
5.458	81.88
5.4585	81.79
5.459	81.70
5.4595	81.59
5.46	81.50
5.4605	81.41
5.461	81.28
5.4615	81.28
5.462	81.28
5.4625	81.25
5.463	81.34
5.4635	81.32
5.464	81.10
5.4645	80.94
5.465	80.83
5.4655	80.67
5.466	80.52
5.4665	80.36
5.467	80.23
5.4675	80.07
5.468	79.89
5.4685	79.74
5.469	79.60
5.4695	79.45
5.47	79.29
5.4705	79.14
5.471	79.00
5.4715	78.91
5.472	78.78
5.4725	78.69
5.473	78.64
5.4735	78.56
5.474	78.44
5.4745	78.33
5.475	78.24
5.4755	78.15
5.476	78.09
5.4765	78.00
5.477	77.93
5.4775	77.89
5.478	77.82
5.4785	77.78
5.479	77.75
5.4795	77.69
5.48	77.66
5.4805	77.62
5.481	77.60
5.4815	77.69
5.482	77.78
5.4825	77.86
5.483	78.07
5.4835	78.11
5.484	78.00
5.4845	78.00
5.485	77.98
5.4855	77.98
5.486	77.95
5.4865	77.95
5.487	77.93
5.4875	77.89
5.488	77.89
5.4885	77.84
5.489	77.82
5.4895	77.80
5.49	77.75
5.4905	77.73
5.491	77.73
5.4915	77.73
5.492	77.71
5.4925	77.73
5.493	77.75
5.4935	77.75
5.494	77.73
5.4945	77.69
5.495	77.69
5.4955	77.66
5.496	77.64
5.4965	77.62
5.497	77.62
5.4975	77.60
5.498	77.60
5.4985	77.62
5.499	77.62
5.4995	77.60
5.5	77.60
5.5005	77.62
5.501	77.64
5.5015	77.78
5.502	77.91
5.5025	78.04
5.503	78.27
5.5035	78.31
5.504	78.27
5.5045	78.31
5.505	78.33
5.5055	78.38
5.506	78.38
5.5065	78.42
5.507	78.47
5.5075	78.49
5.508	78.51
5.5085	78.53
5.509	78.56
5.5095	78.60
5.51	78.62
5.5105	78.64
5.511	78.71
5.5115	78.78
5.512	78.82
5.5125	78.93
5.513	79.02
5.5135	79.09
5.514	79.14
5.5145	79.18
5.515	79.25
5.5155	79.31
5.516	79.36
5.5165	79.40
5.517	79.47
5.5175	79.54
5.518	79.60
5.5185	79.67
5.519	79.76
5.5195	79.83
5.52	79.89
5.5205	79.96
5.521	80.07
5.5215	80.29
5.522	80.45
5.5225	80.67
5.523	80.94
5.5235	80.96
5.524	80.99
5.5245	81.07
5.525	81.16
5.5255	81.23
5.526	81.30
5.5265	81.34
5.527	81.39
5.5275	81.43
5.528	81.50
5.5285	81.54
5.529	81.57
5.5295	81.63
5.53	81.65
5.5305	81.68
5.531	81.74
5.5315	81.81
5.532	81.86
5.5325	81.92
5.533	81.99
5.5335	82.01
5.534	82.03
5.5345	82.03
5.535	82.03
5.5355	82.03
5.536	82.01
5.5365	82.01
5.537	81.99
5.5375	81.99
5.538	81.97
5.5385	81.94
5.539	81.90
5.5395	81.86
5.54	81.83
5.5405	81.77
5.541	81.79
5.5415	81.88
5.542	81.90
5.5425	82.01
5.543	82.10
5.5435	81.97
5.544	81.86
5.5445	81.81
5.545	81.77
5.5455	81.68
5.546	81.61
5.5465	81.50
5.547	81.39
5.5475	81.30
5.548	81.19
5.5485	81.07
5.549	80.96
5.5495	80.85
5.55	80.72
5.5505	80.63
5.551	80.56
5.5515	80.45
5.552	80.38
5.5525	80.34
5.553	80.27
5.5535	80.18
5.554	80.09
5.5545	79.98
5.555	79.92
5.5555	79.83
5.556	79.76
5.5565	79.71
5.557	79.65
5.5575	79.60
5.558	79.56
5.5585	79.51
5.559	79.45
5.5595	79.43
5.56	79.38
5.5605	79.34
5.561	79.43
5.5615	79.54
5.562	79.58
5.5625	79.78
5.563	79.89
5.5635	79.83
5.564	79.80
5.5645	79.85
5.565	79.89
5.5655	79.89
5.566	79.92
5.5665	79.94
5.567	79.96
5.5675	79.98
5.568	80.00
5.5685	80.03
5.569	80.09
5.5695	80.12
5.57	80.14
5.5705	80.18
5.571	80.27
5.5715	80.32
5.572	80.41
5.5725	80.50
5.573	80.56
5.5735	80.61
5.574	80.65
5.5745	80.67
5.575	80.72
5.5755	80.76
5.576	80.81
5.5765	80.85
5.577	80.90
5.5775	80.94
5.578	80.96
5.5785	81.01
5.579	81.05
5.5795	81.07
5.58	81.12
5.5805	81.14
5.581	81.28
5.5815	81.45
5.582	81.57
5.5825	81.79
5.583	81.94
5.5835	81.88
5.584	81.90
5.5845	81.99
5.585	82.03
5.5855	82.06
5.586	82.08
5.5865	82.10
5.587	82.12
5.5875	82.14
5.588	82.17
5.5885	82.19
5.589	82.23
5.5895	82.26
5.59	82.28
5.5905	82.32
5.591	82.39
5.5915	82.43
5.592	82.50
5.5925	82.61
5.593	82.64
5.5935	82.68
5.594	82.75
5.5945	82.77
5.595	82.81
5.5955	82.86
5.596	82.93
5.5965	82.97
5.597	82.99
5.5975	83.04
5.598	83.08
5.5985	83.13
5.599	83.17
5.5995	83.19
5.6	83.24
5.6005	83.28
5.601	83.44
5.6015	83.59
5.602	83.68
5.6025	83.91
5.603	84.00
5.6035	83.93
5.604	83.97
5.6045	84.04
5.605	84.08
5.6055	84.08
5.606	84.11
5.6065	84.11
5.607	84.08
5.6075	84.11
5.608	84.11
5.6085	84.08
5.609	84.08
5.6095	84.04
5.61	84.04
5.6105	84.04
5.611	84.04
5.6115	84.02
5.612	84.04
5.6125	84.04
5.613	84.00
5.6135	83.97
5.614	83.97
5.6145	83.93
5.615	83.88
5.6155	83.86
5.616	83.82
5.6165	83.75
5.617	83.71
5.6175	83.66
5.618	83.59
5.6185	83.55
5.619	83.48
5.6195	83.42
5.62	83.35
5.6205	83.28
5.621	83.35
5.6215	83.39
5.622	83.42
5.6225	83.53
5.623	83.50
5.6235	83.39
5.624	83.30
5.6245	83.28
5.625	83.26
5.6255	83.19
5.626	83.13
5.6265	83.04
5.627	82.97
5.6275	82.90
5.628	82.81
5.6285	82.75
5.629	82.68
5.6295	82.61
5.63	82.55
5.6305	82.48
5.631	82.46
5.6315	82.41
5.632	82.37
5.6325	82.35
5.633	82.32
5.6335	82.28
5.634	82.26
5.6345	82.21
5.635	82.19
5.6355	82.17
5.636	82.14
5.6365	82.12
5.637	82.10
5.6375	82.10
5.638	82.10
5.6385	82.12
5.639	82.12
5.6395	82.14
5.64	82.17
5.6405	82.19
5.641	82.39
5.6415	82.52
5.642	82.66
5.6425	82.88
5.643	82.95
5.6435	82.95
5.644	83.01
5.6445	83.15
5.645	83.24
5.6455	83.28
5.646	83.35
5.6465	83.42
5.647	83.48
5.6475	83.55
5.648	83.62
5.6485	83.66
5.649	83.77
5.6495	83.84
5.65	83.88
5.6505	83.97
5.651	84.04
5.6515	84.13
5.652	84.22
5.6525	84.31
5.653	84.35
5.6535	84.42
5.654	84.49
5.6545	84.53
5.655	84.57
5.6555	84.60
5.656	84.64
5.6565	84.69
5.657	84.71
5.6575	84.75
5.658	84.78
5.6585	84.82
5.659	84.86
5.6595	84.91
5.66	84.93
5.6605	84.98
5.661	85.15
5.6615	85.29
5.662	85.40
5.6625	85.62
5.663	85.69
5.6635	85.67
5.664	85.69
5.6645	85.80
5.665	85.87
5.6655	85.91
5.666	85.96
5.6665	85.98
5.667	86.02
5.6675	86.07
5.668	86.14
5.6685	86.18
5.669	86.20
5.6695	86.25
5.67	86.29
5.6705	86.36
5.671	86.43
5.6715	86.47
5.672	86.58
5.6725	86.65
5.673	86.72
5.6735	86.78
5.674	86.78
5.6745	86.83
5.675	86.87
5.6755	86.89
5.676	86.94
5.6765	86.96
5.677	86.98
5.6775	87.03
5.678	87.05
5.6785	87.07
5.679	87.07
5.6795	87.12
5.68	87.14
5.6805	87.16
5.681	87.32
5.6815	87.43
5.682	87.54
5.6825	87.72
5.683	87.74
5.6835	87.70
5.684	87.72
5.6845	87.79
5.685	87.85
5.6855	87.85
5.686	87.83
5.6865	87.83
5.687	87.83
5.6875	87.83
5.688	87.79
5.6885	87.76
5.689	87.76
5.6895	87.74
5.69	87.72
5.6905	87.70
5.691	87.67
5.6915	87.65
5.692	87.67
5.6925	87.65
5.693	87.63
5.6935	87.56
5.694	87.52
5.6945	87.45
5.695	87.41
5.6955	87.34
5.696	87.27
5.6965	87.21
5.697	87.16
5.6975	87.09
5.698	87.03
5.6985	86.96
5.699	86.89
5.6995	86.83
5.7	86.78
5.7005	86.69
5.701	86.67
5.7015	86.76
5.702	86.78
5.7025	86.83
5.703	86.96
5.7035	86.94
5.704	86.85
5.7045	86.78
5.705	86.78
5.7055	86.85
5.706	86.85
5.7065	86.83
5.707	86.80
5.7075	86.78
5.708	86.76
5.7085	86.76
5.709	86.76
5.7095	86.74
5.71	86.76
5.7105	86.76
5.711	86.76
5.7115	86.80
5.712	86.83
5.7125	86.87
5.713	86.96
5.7135	86.98
5.714	87.00
5.7145	87.05
5.715	87.07
5.7155	87.12
5.716	87.16
5.7165	87.21
5.717	87.25
5.7175	87.27
5.718	87.32
5.7185	87.36
5.719	87.43
5.7195	87.50
5.72	87.52
5.7205	87.58
5.721	87.65
5.7215	87.81
5.722	88.01
5.7225	88.14
5.723	88.34
5.7235	88.50
5.724	88.54
5.7245	88.59
5.725	88.70
5.7255	88.83
5.726	88.92
5.7265	89.01
5.727	89.08
5.7275	89.12
5.728	89.19
5.7285	89.23
5.729	89.30
5.7295	89.37
5.73	89.44
5.7305	89.46
5.731	89.52
5.7315	89.61
5.732	89.68
5.7325	89.75
5.733	89.86
5.7335	89.93
5.734	89.97
5.7345	90.01
5.735	90.06
5.7355	90.10
5.736	90.15
5.7365	90.19
5.737	90.22
5.7375	90.26
5.738	90.28
5.7385	90.33
5.739	90.39
5.7395	90.42
5.74	90.44
5.7405	90.46
5.741	90.48
5.7415	90.62
5.742	90.77
5.7425	90.88
5.743	91.08
5.7435	91.22
5.744	91.22
5.7445	91.24
5.745	91.35
5.7455	91.46
5.746	91.55
5.7465	91.60
5.747	91.64
5.7475	91.69
5.748	91.73
5.7485	91.78
5.749	91.82
5.7495	91.87
5.75	91.91
5.7505	91.95
5.751	92.00
5.7515	92.09
5.752	92.13
5.7525	92.22
5.753	92.31
5.7535	92.38
5.754	92.42
5.7545	92.47
5.755	92.51
5.7555	92.58
5.756	92.60
5.7565	92.65
5.757	92.67
5.7575	92.71
5.758	92.76
5.7585	92.80
5.759	92.85
5.7595	92.87
5.76	92.89
5.7605	92.94
5.761	92.96
5.7615	93.07
5.762	93.22
5.7625	93.29
5.763	93.47
5.7635	93.63
5.764	93.58
5.7645	93.58
5.765	93.69
5.7655	93.78
5.766	93.83
5.7665	93.83
5.767	93.83
5.7675	93.83
5.768	93.83
5.7685	93.80
5.769	93.78
5.7695	93.76
5.77	93.74
5.7705	93.72
5.771	93.67
5.7715	93.67
5.772	93.63
5.7725	93.63
5.773	93.63
5.7735	93.58
5.774	93.54
5.7745	93.47
5.775	93.43
5.7755	93.36
5.776	93.29
5.7765	93.22
5.777	93.11
5.7775	93.07
5.778	92.98
5.7785	92.89
5.779	92.82
5.7795	92.73
5.78	92.65
5.7805	92.58
5.781	92.49
5.7815	92.44
5.782	92.51
5.7825	92.49
5.783	92.56
5.7835	92.62
5.784	92.51
5.7845	92.40
5.785	92.42
5.7855	92.47
5.786	92.42
5.7865	92.36
5.787	92.31
5.7875	92.24
5.788	92.18
5.7885	92.13
5.789	92.09
5.7895	92.04
5.79	91.98
5.7905	91.95
5.791	91.91
5.7915	91.89
5.792	91.89
5.7925	91.89
5.793	91.93
5.7935	91.91
5.794	91.89
5.7945	91.89
5.795	91.91
5.7955	91.89
5.796	91.91
5.7965	91.91
5.797	91.91
5.7975	91.91
5.798	91.93
5.7985	91.95
5.799	91.98
5.7995	92.00
5.8	92.02
5.8005	92.07
5.801	92.07
5.8015	92.18
5.802	92.36
5.8025	92.47
5.803	92.65
5.8035	92.82
5.804	92.82
5.8045	92.85
5.805	92.96
5.8055	93.09
5.806	93.20
5.8065	93.22
5.807	93.27
5.8075	93.31
5.808	93.34
5.8085	93.38
5.809	93.43
5.8095	93.49
5.81	93.54
5.8105	93.56
5.811	93.60
5.8115	93.69
5.812	93.76
5.8125	93.83
5.813	93.92
5.8135	93.98
5.814	94.03
5.8145	94.07
5.815	94.12
5.8155	94.16
5.816	94.21
5.8165	94.25
5.817	94.30
5.8175	94.34
5.818	94.38
5.8185	94.43
5.819	94.45
5.8195	94.50
5.82	94.52
5.8205	94.56
5.821	94.58
5.8215	94.70
5.822	94.85
5.8225	94.94
5.823	95.12
5.8235	95.25
5.824	95.21
5.8245	95.25
5.825	95.37
5.8255	95.50
5.826	95.54
5.8265	95.54
5.827	95.54
5.8275	95.57
5.828	95.59
5.8285	95.59
5.829	95.59
5.8295	95.59
5.83	95.61
5.8305	95.61
5.831	95.61
5.8315	95.63
5.832	95.65
5.8325	95.68
5.833	95.72
5.8335	95.74
5.834	95.74
5.8345	95.72
5.835	95.72
5.8355	95.74
5.836	95.72
5.8365	95.70
5.837	95.68
5.8375	95.68
5.838	95.68
5.8385	95.65
5.839	95.63
5.8395	95.63
5.84	95.61
5.8405	95.61
5.841	95.59
5.8415	95.63
5.842	95.72
5.8425	95.77
5.843	95.90
5.8435	95.97
5.844	95.90
5.8445	95.88
5.845	95.97
5.8455	96.03
5.846	95.99
5.8465	95.94
5.847	95.92
5.8475	95.88
5.848	95.83
5.8485	95.79
5.849	95.72
5.8495	95.65
5.85	95.61
5.8505	95.54
5.851	95.48
5.8515	95.43
5.852	95.37
5.8525	95.32
5.853	95.28
5.8535	95.21
5.854	95.12
5.8545	95.01
5.855	94.94
5.8555	94.83
5.856	94.72
5.8565	94.61
5.857	94.47
5.8575	94.36
5.858	94.23
5.8585	94.09
5.859	93.96
5.8595	93.85
5.86	93.69
5.8605	93.56
5.861	93.40
5.8615	93.31
5.862	93.31
5.8625	93.22
5.863	93.22
5.8635	93.16
5.864	92.94
5.8645	92.80
5.865	92.76
5.8655	92.71
5.866	92.58
5.8665	92.44
5.867	92.31
5.8675	92.20
5.868	92.11
5.8685	92.00
5.869	91.91
5.8695	91.82
5.87	91.75
5.8705	91.69
5.871	91.64
5.8715	91.62
5.872	91.60
5.8725	91.60
5.873	91.60
5.8735	91.62
5.874	91.60
5.8745	91.58
5.875	91.58
5.8755	91.60
5.876	91.60
5.8765	91.62
5.877	91.64
5.8775	91.64
5.878	91.66
5.8785	91.69
5.879	91.73
5.8795	91.75
5.88	91.78
5.8805	91.82
5.881	91.87
5.8815	91.89
5.882	91.98
5.8825	92.15
5.883	92.24
5.8835	92.40
5.884	92.58
5.8845	92.58
5.885	92.58
5.8855	92.71
5.886	92.87
5.8865	92.96
5.887	93.00
5.8875	93.05
5.888	93.09
5.8885	93.14
5.889	93.18
5.8895	93.22
5.89	93.27
5.8905	93.31
5.891	93.38
5.8915	93.43
5.892	93.49
5.8925	93.56
5.893	93.63
5.8935	93.72
5.894	93.78
5.8945	93.80
5.895	93.83
5.8955	93.89
5.896	93.94
5.8965	93.96
5.897	94.03
5.8975	94.07
5.898	94.12
5.8985	94.18
5.899	94.23
5.8995	94.27
5.9	94.32
5.9005	94.38
5.901	94.43
5.9015	94.47
5.902	94.56
5.9025	94.72
5.903	94.85
5.9035	95.03
5.904	95.19
5.9045	95.19
5.905	95.23
5.9055	95.37
5.906	95.50
5.9065	95.57
5.907	95.61
5.9075	95.63
5.908	95.68
5.9085	95.70
5.909	95.74
5.9095	95.77
5.91	95.81
5.9105	95.86
5.911	95.88
5.9115	95.92
5.912	95.97
5.9125	96.01
5.913	96.06
5.9135	96.15
5.914	96.19
5.9145	96.21
5.915	96.21
5.9155	96.23
5.916	96.26
5.9165	96.26
5.917	96.28
5.9175	96.30
5.918	96.30
5.9185	96.30
5.919	96.28
5.9195	96.28
5.92	96.30
5.9205	96.30
5.921	96.26
5.9215	96.23
5.922	96.21
5.9225	96.21
5.923	96.30
5.9235	96.35
5.924	96.39
5.9245	96.52
5.925	96.50
5.9255	96.41
5.926	96.48
5.9265	96.55
5.927	96.55
5.9275	96.52
5.928	96.46
5.9285	96.41
5.929	96.39
5.9295	96.35
5.93	96.28
5.9305	96.23
5.931	96.21
5.9315	96.17
5.932	96.12
5.9325	96.10
5.933	96.08
5.9335	96.08
5.934	96.08
5.9345	96.08
5.935	96.08
5.9355	96.03
5.936	95.99
5.9365	95.94
5.937	95.92
5.9375	95.90
5.938	95.86
5.9385	95.83
5.939	95.79
5.9395	95.77
5.94	95.72
5.9405	95.68
5.941	95.65
5.9415	95.63
5.942	95.59
5.9425	95.54
5.943	95.61
5.9435	95.63
5.944	95.70
5.9445	95.81
5.945	95.77
5.9455	95.70
5.946	95.74
5.9465	95.81
5.947	95.83
5.9475	95.79
5.948	95.77
5.9485	95.72
5.949	95.70
5.9495	95.68
5.95	95.65
5.9505	95.61
5.951	95.59
5.9515	95.59
5.952	95.57
5.9525	95.57
5.953	95.59
5.9535	95.59
5.954	95.63
5.9545	95.68
5.955	95.72
5.9555	95.70
5.956	95.68
5.9565	95.72
5.957	95.72
5.9575	95.74
5.958	95.74
5.9585	95.74
5.959	95.77
5.9595	95.79
5.96	95.81
5.9605	95.83
5.961	95.83
5.9615	95.86
5.962	95.86
5.9625	95.90
5.963	96.01
5.9635	96.08
5.964	96.19
5.9645	96.35
5.965	96.37
5.9655	96.35
5.966	96.41
5.9665	96.52
5.967	96.57
5.9675	96.57
5.968	96.57
5.9685	96.57
5.969	96.57
5.9695	96.55
5.97	96.55
5.9705	96.55
5.971	96.55
5.9715	96.55
5.972	96.55
5.9725	96.57
5.973	96.59
5.9735	96.59
5.974	96.64
5.9745	96.68
5.975	96.70
5.9755	96.68
5.976	96.68
5.9765	96.70
5.977	96.70
5.9775	96.73
5.978	96.75
5.9785	96.77
5.979	96.77
5.9795	96.79
5.98	96.79
5.9805	96.81
5.981	96.84
5.9815	96.86
5.982	96.88
5.9825	96.90
5.983	97.04
5.9835	97.13
5.984	97.22
5.9845	97.42
5.985	97.48
5.9855	97.48
5.986	97.57
5.9865	97.73
5.987	97.82
5.9875	97.84
5.988	97.86
5.9885	97.91
5.989	97.93
5.9895	97.95
5.99	98.00
5.9905	98.02
5.991	98.04
5.9915	98.06
5.992	98.08
5.9925	98.13
5.993	98.15
5.9935	98.20
5.994	98.26
5.9945	98.29
5.995	98.33
5.9955	98.31
5.996	98.29
5.9965	98.33
5.997	98.33
5.9975	98.33
5.998	98.33
5.9985	98.33
5.999	98.33
5.9995	98.33
6	98.31
6.0005	98.29
6.001	98.29
6.0015	98.29
6.002	98.24
6.0025	98.24
6.003	98.24
6.0035	98.31
6.004	98.37
6.0045	98.42
6.005	98.55
6.0055	98.58
6.006	98.51
6.0065	98.53
6.007	98.62
6.0075	98.66
6.008	98.62
6.0085	98.58
6.009	98.53
6.0095	98.49
6.01	98.44
6.0105	98.40
6.011	98.35
6.0115	98.29
6.012	98.24
6.0125	98.20
6.013	98.15
6.0135	98.11
6.014	98.06
6.0145	98.04
6.015	98.02
6.0155	97.97
6.016	97.88
6.0165	97.82
6.017	97.75
6.0175	97.68
6.018	97.62
6.0185	97.55
6.019	97.46
6.0195	97.42
6.02	97.33
6.0205	97.26
6.021	97.19
6.0215	97.13
6.022	97.06
6.0225	96.97
6.023	96.93
6.0235	96.97
6.024	96.97
6.0245	96.97
6.025	97.04
6.0255	97.01
6.026	96.90
6.0265	96.90
6.027	96.95
6.0275	96.93
6.028	96.86
6.0285	96.79
6.029	96.75
6.0295	96.66
6.03	96.61
6.0305	96.57
6.031	96.50
6.0315	96.46
6.032	96.39
6.0325	96.32
6.033	96.30
6.0335	96.26
6.034	96.23
6.0345	96.23
6.035	96.23
6.0355	96.21
6.036	96.15
6.0365	96.10
6.037	96.10
6.0375	96.06
6.038	96.03
6.0385	96.01
6.039	95.99
6.0395	95.97
6.04	95.94
6.0405	95.92
6.041	95.92
6.0415	95.90
6.042	95.88
6.0425	95.86
6.043	95.88
6.0435	95.99
6.044	96.06
6.0445	96.12
6.045	96.26
6.0455	96.23
6.046	96.21
6.0465	96.30
6.047	96.39
6.0475	96.44
6.048	96.44
6.0485	96.44
6.049	96.41
6.0495	96.41
6.05	96.41
6.0505	96.41
6.051	96.39
6.0515	96.41
6.052	96.39
6.0525	96.39
6.053	96.41
6.0535	96.41
6.054	96.44
6.0545	96.48
6.055	96.50
6.0555	96.50
6.056	96.48
6.0565	96.48
6.057	96.50
6.0575	96.48
6.058	96.48
6.0585	96.46
6.059	96.46
6.0595	96.46
6.06	96.44
6.0605	96.44
6.061	96.41
6.0615	96.39
6.062	96.41
6.0625	96.39
6.063	96.41
6.0635	96.50
6.064	96.55
6.0645	96.64
6.065	96.70
6.0655	96.66
6.066	96.66
6.0665	96.73
6.067	96.79
6.0675	96.79
6.068	96.75
6.0685	96.73
6.069	96.68
6.0695	96.66
6.07	96.64
6.0705	96.59
6.071	96.55
6.0715	96.52
6.072	96.46
6.0725	96.44
6.073	96.44
6.0735	96.37
6.074	96.35
6.0745	96.37
6.075	96.37
6.0755	96.30
6.076	96.23
6.0765	96.19
6.077	96.15
6.0775	96.10
6.078	96.06
6.0785	95.99
6.079	95.94
6.0795	95.90
6.08	95.86
6.0805	95.81
6.081	95.72
6.0815	95.70
6.082	95.65
6.0825	95.61
6.083	95.54
6.0835	95.54
6.084	95.61
6.0845	95.59
6.085	95.63
6.0855	95.70
6.086	95.63
6.0865	95.59
6.087	95.63
6.0875	95.65
6.088	95.63
6.0885	95.59
6.089	95.52
6.0895	95.45
6.09	95.43
6.0905	95.37
6.091	95.32
6.0915	95.25
6.092	95.19
6.0925	95.14
6.093	95.08
6.0935	95.03
6.094	94.99
6.0945	94.96
6.095	94.94
6.0955	94.92
6.096	94.85
6.0965	94.76
6.097	94.72
6.0975	94.63
6.098	94.58
6.0985	94.52
6.099	94.45
6.0995	94.38
6.1	94.32
6.1005	94.25
6.101	94.18
6.1015	94.09
6.102	94.03
6.1025	93.96
6.103	93.92
6.1035	93.94
6.104	93.98
6.1045	93.94
6.105	94.01
6.1055	94.05
6.106	93.96
6.1065	94.01
6.107	94.07
6.1075	94.12
6.108	94.14
6.1085	94.12
6.109	94.12
6.1095	94.12
6.11	94.14
6.1105	94.14
6.111	94.16
6.1115	94.18
6.112	94.21
6.1125	94.25
6.113	94.27
6.1135	94.34
6.114	94.38
6.1145	94.45
6.115	94.54
6.1155	94.61
6.116	94.61
6.1165	94.65
6.117	94.70
6.1175	94.72
6.118	94.76
6.1185	94.79
6.119	94.83
6.1195	94.87
6.12	94.87
6.1205	94.92
6.121	94.96
6.1215	94.96
6.122	95.01
6.1225	95.05
6.123	95.05
6.1235	95.19
6.124	95.28
6.1245	95.32
6.125	95.45
6.1255	95.48
6.126	95.48
6.1265	95.57
6.127	95.65
6.1275	95.72
6.128	95.74
6.1285	95.74
6.129	95.74
6.1295	95.74
6.13	95.77
6.1305	95.74
6.131	95.74
6.1315	95.74
6.132	95.74
6.1325	95.74
6.133	95.74
6.1335	95.77
6.134	95.77
6.1345	95.79
6.135	95.83
6.1355	95.81
6.136	95.79
6.1365	95.77
6.137	95.77
6.1375	95.74
6.138	95.72
6.1385	95.68
6.139	95.68
6.1395	95.65
6.14	95.63
6.1405	95.59
6.141	95.57
6.1415	95.54
6.142	95.52
6.1425	95.48
6.143	95.50
6.1435	95.57
6.144	95.57
6.1445	95.61
6.145	95.70
6.1455	95.63
6.146	95.59
6.1465	95.65
6.147	95.70
6.1475	95.68
6.148	95.63
6.1485	95.61
6.149	95.57
6.1495	95.52
6.15	95.48
6.1505	95.41
6.151	95.37
6.1515	95.32
6.152	95.25
6.1525	95.21
6.153	95.21
6.1535	95.14
6.154	95.12
6.1545	95.12
6.155	95.10
6.1555	95.03
6.156	94.94
6.1565	94.90
6.157	94.83
6.1575	94.76
6.158	94.70
6.1585	94.63
6.159	94.56
6.1595	94.50
6.16	94.43
6.1605	94.34
6.161	94.27
6.1615	94.21
6.162	94.12
6.1625	94.03
6.163	94.03
6.1635	94.03
6.164	93.96
6.1645	93.98
6.165	93.98
6.1655	93.85
6.166	93.80
6.1665	93.83
6.167	93.80
6.1675	93.72
6.168	93.63
6.1685	93.56
6.169	93.47
6.1695	93.38
6.17	93.29
6.1705	93.20
6.171	93.11
6.1715	93.02
6.172	92.91
6.1725	92.85
6.173	92.78
6.1735	92.67
6.174	92.65
6.1745	92.58
6.175	92.49
6.1755	92.38
6.176	92.27
6.1765	92.18
6.177	92.09
6.1775	91.98
6.178	91.89
6.1785	91.78
6.179	91.66
6.1795	91.58
6.18	91.49
6.1805	91.40
6.181	91.29
6.1815	91.22
6.182	91.13
6.1825	91.06
6.183	91.11
6.1835	91.08
6.184	91.06
6.1845	91.08
6.185	91.02
6.1855	90.95
6.186	91.00
6.1865	91.04
6.187	91.02
6.1875	91.00
6.188	90.93
6.1885	90.91
6.189	90.88
6.1895	90.88
6.19	90.88
6.1905	90.84
6.191	90.84
6.1915	90.82
6.192	90.84
6.1925	90.86
6.193	90.86
6.1935	90.91
6.194	90.97
6.1945	91.00
6.195	91.02
6.1955	91.02
6.196	91.02
6.1965	91.06
6.197	91.06
6.1975	91.08
6.198	91.13
6.1985	91.13
6.199	91.15
6.1995	91.17
6.2	91.17
6.2005	91.20
6.201	91.20
6.2015	91.22
6.202	91.22
6.2025	91.31
6.203	91.40
6.2035	91.42
6.204	91.51
6.2045	91.53
6.205	91.51
6.2055	91.53
6.206	91.62
6.2065	91.69
6.207	91.71
6.2075	91.71
6.208	91.71
6.2085	91.69
6.209	91.69
6.2095	91.69
6.21	91.69
6.2105	91.69
6.211	91.69
6.2115	91.69
6.212	91.71
6.2125	91.73
6.213	91.73
6.2135	91.78
6.214	91.82
6.2145	91.87
6.215	91.82
6.2155	91.82
6.216	91.84
6.2165	91.82
6.217	91.82
6.2175	91.82
6.218	91.82
6.2185	91.80
6.219	91.82
6.2195	91.82
6.22	91.82
6.2205	91.82
6.221	91.84
6.2215	91.84
6.222	91.84
6.2225	91.91
6.223	92.00
6.2235	92.04
6.224	92.11
6.2245	92.11
6.225	92.09
6.2255	92.13
6.226	92.22
6.2265	92.27
6.227	92.24
6.2275	92.22
6.228	92.20
6.2285	92.20
6.229	92.18
6.2295	92.15
6.23	92.13
6.2305	92.11
6.231	92.09
6.2315	92.07
6.232	92.07
6.2325	92.07
6.233	92.04
6.2335	92.04
6.234	92.07
6.2345	92.02
6.235	91.95
6.2355	91.93
6.236	91.89
6.2365	91.82
6.237	91.78
6.2375	91.71
6.238	91.66
6.2385	91.62
6.239	91.55
6.2395	91.49
6.24	91.42
6.2405	91.37
6.241	91.29
6.2415	91.20
6.242	91.15
6.2425	91.17
6.243	91.13
6.2435	91.08
6.244	91.08
6.2445	90.97
6.245	90.91
6.2455	90.91
6.246	90.86
6.2465	90.79
6.247	90.71
6.2475	90.59
6.248	90.51
6.2485	90.42
6.249	90.30
6.2495	90.22
6.25	90.10
6.2505	90.01
6.251	89.90
6.2515	89.81
6.252	89.75
6.2525	89.64
6.253	89.57
6.2535	89.52
6.254	89.46
6.2545	89.35
6.255	89.21
6.2555	89.15
6.256	89.06
6.2565	88.97
6.257	88.90
6.2575	88.81
6.258	88.77
6.2585	88.68
6.259	88.63
6.2595	88.59
6.26	88.52
6.2605	88.48
6.261	88.43
6.2615	88.41
6.262	88.36
6.2625	88.41
6.263	88.45
6.2635	88.48
6.264	88.54
6.2645	88.59
6.265	88.57
6.2655	88.57
6.266	88.68
6.2665	88.77
6.267	88.79
6.2675	88.81
6.268	88.83
6.2685	88.86
6.269	88.90
6.2695	88.92
6.27	88.94
6.2705	88.97
6.271	89.01
6.2715	89.03
6.272	89.08
6.2725	89.15
6.273	89.19
6.2735	89.23
6.274	89.30
6.2745	89.35
6.275	89.37
6.2755	89.39
6.276	89.44
6.2765	89.48
6.277	89.50
6.2775	89.55
6.278	89.57
6.2785	89.61
6.279	89.64
6.2795	89.68
6.28	89.70
6.2805	89.72
6.281	89.77
6.2815	89.81
6.282	89.84
6.2825	89.93
6.283	90.04
6.2835	90.10
6.284	90.19
6.2845	90.22
6.285	90.22
6.2855	90.28
6.286	90.39
6.2865	90.46
6.287	90.48
6.2875	90.51
6.288	90.53
6.2885	90.53
6.289	90.55
6.2895	90.57
6.29	90.57
6.2905	90.59
6.291	90.59
6.2915	90.57
6.292	90.62
6.2925	90.64
6.293	90.64
6.2935	90.68
6.294	90.73
6.2945	90.73
6.295	90.71
6.2955	90.68
6.296	90.68
6.2965	90.68
6.297	90.68
6.2975	90.68
6.298	90.66
6.2985	90.66
6.299	90.64
6.2995	90.59
6.3	90.57
6.3005	90.55
6.301	90.53
6.3015	90.51
6.302	90.46
6.3025	90.44
6.303	90.48
6.3035	90.51
6.304	90.48
6.3045	90.51
6.305	90.46
6.3055	90.42
6.306	90.39
6.3065	90.42
6.307	90.44
6.3075	90.39
6.308	90.33
6.3085	90.26
6.309	90.19
6.3095	90.15
6.31	90.10
6.3105	90.01
6.311	89.95
6.3115	89.88
6.312	89.81
6.3125	89.77
6.313	89.72
6.3135	89.66
6.314	89.66
6.3145	89.61
6.315	89.52
6.3155	89.46
6.316	89.39
6.3165	89.32
6.317	89.26
6.3175	89.19
6.318	89.10
6.3185	89.03
6.319	88.97
6.3195	88.90
6.32	88.83
6.3205	88.77
6.321	88.68
6.3215	88.61
6.322	88.54
6.3225	88.48
6.323	88.48
6.3235	88.45
6.324	88.43
6.3245	88.39
6.325	88.30
6.3255	88.25
6.326	88.23
6.3265	88.25
6.327	88.23
6.3275	88.16
6.328	88.12
6.3285	88.05
6.329	87.99
6.3295	87.94
6.33	87.90
6.3305	87.85
6.331	87.81
6.3315	87.76
6.332	87.70
6.3325	87.67
6.333	87.63
6.3335	87.61
6.334	87.61
6.3345	87.61
6.335	87.56
6.3355	87.52
6.336	87.47
6.3365	87.43
6.337	87.41
6.3375	87.41
6.338	87.36
6.3385	87.34
6.339	87.32
6.3395	87.29
6.34	87.29
6.3405	87.27
6.341	87.27
6.3415	87.27
6.342	87.25
6.3425	87.27
6.343	87.29
6.3435	87.38
6.344	87.45
6.3445	87.47
6.345	87.56
6.3455	87.56
6.346	87.58
6.3465	87.67
6.347	87.79
6.3475	87.85
6.348	87.87
6.3485	87.92
6.349	87.94
6.3495	87.99
6.35	88.03
6.3505	88.10
6.351	88.12
6.3515	88.19
6.352	88.23
6.3525	88.28
6.353	88.36
6.3535	88.41
6.354	88.48
6.3545	88.57
6.355	88.65
6.3555	88.72
6.356	88.74
6.3565	88.79
6.357	88.88
6.3575	88.92
6.358	88.99
6.3585	89.06
6.359	89.10
6.3595	89.15
6.36	89.19
6.3605	89.26
6.361	89.30
6.3615	89.35
6.362	89.39
6.3625	89.44
6.363	89.52
6.3635	89.64
6.364	89.70
6.3645	89.81
6.365	89.88
6.3655	89.90
6.366	89.95
6.3665	90.06
6.367	90.17
6.3675	90.19
6.368	90.24
6.3685	90.26
6.369	90.26
6.3695	90.30
6.37	90.30
6.3705	90.33
6.371	90.35
6.3715	90.35
6.372	90.37
6.3725	90.39
6.373	90.42
6.3735	90.42
6.374	90.44
6.3745	90.46
6.375	90.46
6.3755	90.46
6.376	90.44
6.3765	90.42
6.377	90.42
6.3775	90.39
6.378	90.37
6.3785	90.35
6.379	90.33
6.3795	90.30
6.38	90.26
6.3805	90.24
6.381	90.19
6.3815	90.17
6.382	90.15
6.3825	90.08
6.383	90.10
6.3835	90.13
6.384	90.13
6.3845	90.15
6.385	90.10
6.3855	90.01
6.386	89.99
6.3865	90.04
6.387	90.01
6.3875	89.95
6.388	89.90
6.3885	89.84
6.389	89.75
6.3895	89.66
6.39	89.59
6.3905	89.52
6.391	89.41
6.3915	89.35
6.392	89.26
6.3925	89.17
6.393	89.10
6.3935	89.03
6.394	88.97
6.3945	88.92
6.395	88.81
6.3955	88.68
6.396	88.59
6.3965	88.50
6.397	88.39
6.3975	88.32
6.398	88.21
6.3985	88.10
6.399	88.01
6.3995	87.92
6.4	87.81
6.4005	87.72
6.401	87.61
6.4015	87.52
6.402	87.43
6.4025	87.34
6.403	87.32
6.4035	87.27
6.404	87.23
6.4045	87.18
6.405	87.07
6.4055	86.98
6.406	86.96
6.4065	86.96
6.407	86.89
6.4075	86.80
6.408	86.72
6.4085	86.63
6.409	86.56
6.4095	86.49
6.41	86.43
6.4105	86.36
6.411	86.31
6.4115	86.25
6.412	86.20
6.4125	86.16
6.413	86.14
6.4135	86.11
6.414	86.09
6.4145	86.09
6.415	86.07
6.4155	86.02
6.416	86.00
6.4165	86.00
6.417	85.98
6.4175	85.98
6.418	85.98
6.4185	85.98
6.419	85.98
6.4195	85.98
6.42	85.98
6.4205	86.00
6.421	86.00
6.4215	86.02
6.422	86.05
6.4225	86.05
6.423	86.09
6.4235	86.18
6.424	86.22
6.4245	86.29
6.425	86.36
6.4255	86.36
6.426	86.38
6.4265	86.45
6.427	86.54
6.4275	86.58
6.428	86.58
6.4285	86.63
6.429	86.63
6.4295	86.65
6.43	86.67
6.4305	86.69
6.431	86.69
6.4315	86.72
6.432	86.74
6.4325	86.76
6.433	86.80
6.4335	86.85
6.434	86.87
6.4345	86.89
6.435	86.92
6.4355	86.94
6.436	86.96
6.4365	86.98
6.437	87.03
6.4375	87.03
6.438	87.05
6.4385	87.07
6.439	87.09
6.4395	87.12
6.44	87.14
6.4405	87.16
6.441	87.16
6.4415	87.18
6.442	87.21
6.4425	87.21
6.443	87.25
6.4435	87.34
6.444	87.36
6.4445	87.43
6.445	87.45
6.4455	87.43
6.446	87.45
6.4465	87.52
6.447	87.58
6.4475	87.58
6.448	87.58
6.4485	87.58
6.449	87.56
6.4495	87.56
6.45	87.54
6.4505	87.52
6.451	87.52
6.4515	87.50
6.452	87.50
6.4525	87.47
6.453	87.45
6.4535	87.45
6.454	87.43
6.4545	87.43
6.455	87.41
6.4555	87.38
6.456	87.36
6.4565	87.32
6.457	87.27
6.4575	87.25
6.458	87.23
6.4585	87.18
6.459	87.16
6.4595	87.12
6.46	87.07
6.4605	87.03
6.461	86.98
6.4615	86.94
6.462	86.89
6.4625	86.85
6.463	86.83
6.4635	86.85
6.464	86.80
6.4645	86.80
6.465	86.74
6.4655	86.67
6.466	86.65
6.4665	86.65
6.467	86.60
6.4675	86.54
6.468	86.45
6.4685	86.38
6.469	86.29
6.4695	86.20
6.47	86.09
6.4705	86.00
6.471	85.91
6.4715	85.82
6.472	85.71
6.4725	85.62
6.473	85.56
6.4735	85.42
6.474	85.33
6.4745	85.27
6.475	85.15
6.4755	85.02
6.476	84.93
6.4765	84.82
6.477	84.71
6.4775	84.62
6.478	84.49
6.4785	84.37
6.479	84.29
6.4795	84.17
6.48	84.06
6.4805	83.95
6.481	83.84
6.4815	83.73
6.482	83.62
6.4825	83.53
6.483	83.48
6.4835	83.44
6.484	83.39
6.4845	83.30
6.485	83.19
6.4855	83.10
6.486	83.08
6.4865	83.06
6.487	82.99
6.4875	82.93
6.488	82.84
6.4885	82.77
6.489	82.72
6.4895	82.66
6.49	82.61
6.4905	82.57
6.491	82.52
6.4915	82.50
6.492	82.50
6.4925	82.48
6.493	82.50
6.4935	82.48
6.494	82.46
6.4945	82.50
6.495	82.50
6.4955	82.50
6.496	82.55
6.4965	82.55
6.497	82.57
6.4975	82.61
6.498	82.64
6.4985	82.70
6.499	82.75
6.4995	82.79
6.5	82.84
6.5005	82.88
6.501	82.93
6.5015	82.99
6.502	83.04
6.5025	83.08
6.503	83.19
6.5035	83.30
6.504	83.39
6.5045	83.50
6.505	83.55
6.5055	83.59
6.506	83.66
6.5065	83.75
6.507	83.88
6.5075	83.91
6.508	83.95
6.5085	84.00
6.509	84.00
6.5095	84.04
6.51	84.08
6.5105	84.08
6.511	84.11
6.5115	84.13
6.512	84.13
6.5125	84.17
6.513	84.20
6.5135	84.22
6.514	84.22
6.5145	84.22
6.515	84.24
6.5155	84.24
6.516	84.24
6.5165	84.24
6.517	84.24
6.5175	84.26
6.518	84.29
6.5185	84.29
6.519	84.29
6.5195	84.29
6.52	84.29
6.5205	84.29
6.521	84.29
6.5215	84.31
6.522	84.31
6.5225	84.33
6.523	84.37
6.5235	84.42
6.524	84.46
6.5245	84.53
6.525	84.55
6.5255	84.53
6.526	84.60
6.5265	84.69
6.527	84.73
6.5275	84.75
6.528	84.73
6.5285	84.78
6.529	84.78
6.5295	84.78
6.53	84.78
6.5305	84.78
6.531	84.80
6.5315	84.80
6.532	84.80
6.5325	84.80
6.533	84.80
6.5335	84.80
6.534	84.78
6.5345	84.75
6.535	84.75
6.5355	84.73
6.536	84.69
6.5365	84.66
6.537	84.64
6.5375	84.62
6.538	84.57
6.5385	84.53
6.539	84.49
6.5395	84.46
6.54	84.42
6.5405	84.37
6.541	84.33
6.5415	84.24
6.542	84.20
6.5425	84.13
6.543	84.06
6.5435	84.08
6.544	84.04
6.5445	84.00
6.545	84.00
6.5455	83.91
6.546	83.84
6.5465	83.77
6.547	83.77
6.5475	83.73
6.548	83.66
6.5485	83.57
6.549	83.48
6.5495	83.39
6.55	83.30
6.5505	83.24
6.551	83.15
6.5515	83.06
6.552	82.97
6.5525	82.88
6.553	82.79
6.5535	82.72
6.554	82.61
6.5545	82.50
6.555	82.41
6.5555	82.30
6.556	82.19
6.5565	82.08
6.557	81.99
6.5575	81.88
6.558	81.77
6.5585	81.65
6.559	81.57
6.5595	81.45
6.56	81.36
6.5605	81.25
6.561	81.14
6.5615	81.05
6.562	80.94
6.5625	80.85
6.563	80.79
6.5635	80.76
6.564	80.70
6.5645	80.65
6.565	80.63
6.5655	80.54
6.566	80.47
6.5665	80.47
6.567	80.50
6.5675	80.47
6.568	80.41
6.5685	80.36
6.569	80.36
6.5695	80.32
6.57	80.27
6.5705	80.27
6.571	80.25
6.5715	80.23
6.572	80.23
6.5725	80.23
6.573	80.23
6.5735	80.25
6.574	80.25
6.5745	80.25
6.575	80.27
6.5755	80.27
6.576	80.27
6.5765	80.27
6.577	80.32
6.5775	80.32
6.578	80.34
6.5785	80.36
6.579	80.38
6.5795	80.38
6.58	80.41
6.5805	80.43
6.581	80.45
6.5815	80.45
6.582	80.47
6.5825	80.47
6.583	80.54
6.5835	80.61
6.584	80.61
6.5845	80.65
6.585	80.65
6.5855	80.63
6.586	80.67
6.5865	80.74
6.587	80.76
6.5875	80.76
6.588	80.76
6.5885	80.74
6.589	80.72
6.5895	80.74
6.59	80.72
6.5905	80.70
6.591	80.72
6.5915	80.70
6.592	80.67
6.5925	80.67
6.593	80.70
6.5935	80.70
6.594	80.67
6.5945	80.67
6.595	80.70
6.5955	80.67
6.596	80.67
6.5965	80.70
6.597	80.70
6.5975	80.70
6.598	80.72
6.5985	80.72
6.599	80.74
6.5995	80.76
6.6	80.76
6.6005	80.79
6.601	80.79
6.6015	80.79
6.602	80.81
6.6025	80.83
6.603	80.94
6.6035	80.94
6.604	80.94
6.6045	81.01
6.605	81.01
6.6055	81.01
6.606	81.05
6.6065	81.14
6.607	81.16
6.6075	81.14
6.608	81.16
6.6085	81.16
6.609	81.16
6.6095	81.14
6.61	81.14
6.6105	81.12
6.611	81.12
6.6115	81.12
6.612	81.12
6.6125	81.12
6.613	81.12
6.6135	81.12
6.614	81.10
6.6145	81.12
6.615	81.10
6.6155	81.05
6.616	81.05
6.6165	81.05
6.617	81.03
6.6175	81.01
6.618	80.99
6.6185	80.99
6.619	80.94
6.6195	80.92
6.62	80.90
6.6205	80.87
6.621	80.85
6.6215	80.83
6.622	80.81
6.6225	80.74
6.623	80.74
6.6235	80.79
6.624	80.74
6.6245	80.70
6.625	80.72
6.6255	80.63
6.626	80.58
6.6265	80.61
6.627	80.63
6.6275	80.58
6.628	80.54
6.6285	80.47
6.629	80.41
6.6295	80.36
6.63	80.32
6.6305	80.25
6.631	80.18
6.6315	80.16
6.632	80.09
6.6325	80.05
6.633	80.00
6.6335	79.96
6.634	79.92
6.6345	79.83
6.635	79.80
6.6355	79.76
6.636	79.67
6.6365	79.63
6.637	79.60
6.6375	79.54
6.638	79.47
6.6385	79.45
6.639	79.38
6.6395	79.34
6.64	79.29
6.6405	79.22
6.641	79.18
6.6415	79.14
6.642	79.09
6.6425	79.05
6.643	79.05
6.6435	79.09
6.644	79.00
6.6445	79.00
6.645	78.98
6.6455	78.91
6.646	78.93
6.6465	78.98
6.647	79.00
6.6475	79.00
6.648	79.00
6.6485	78.96
6.649	78.96
6.6495	78.96
6.65	78.96
6.6505	78.98
6.651	78.96
6.6515	78.96
6.652	78.98
6.6525	79.00
6.653	79.02
6.6535	79.05
6.654	79.05
6.6545	79.05
6.655	79.09
6.6555	79.11
6.656	79.14
6.6565	79.18
6.657	79.18
6.6575	79.20
6.658	79.25
6.6585	79.25
6.659	79.27
6.6595	79.31
6.66	79.34
6.6605	79.36
6.661	79.38
6.6615	79.40
6.662	79.43
6.6625	79.45
6.663	79.45
6.6635	79.54
6.664	79.60
6.6645	79.58
6.665	79.63
6.6655	79.65
6.666	79.65
6.6665	79.69
6.667	79.74
6.6675	79.80
6.668	79.83
6.6685	79.83
6.669	79.85
6.6695	79.85
6.67	79.83
6.6705	79.87
6.671	79.89
6.6715	79.87
6.672	79.87
6.6725	79.87
6.673	79.89
6.6735	79.89
6.674	79.92
6.6745	79.89
6.675	79.87
6.6755	79.89
6.676	79.89
6.6765	79.87
6.677	79.87
6.6775	79.85
6.678	79.87
6.6785	79.85
6.679	79.85
6.6795	79.85
6.68	79.85
6.6805	79.85
6.681	79.85
6.6815	79.83
6.682	79.85
6.6825	79.85
6.683	79.87
6.6835	79.94
6.684	79.98
6.6845	79.98
6.685	80.03
6.6855	80.03
6.686	80.05
6.6865	80.09
6.687	80.16
6.6875	80.21
6.688	80.25
6.6885	80.23
6.689	80.23
6.6895	80.25
6.69	80.27
6.6905	80.29
6.691	80.27
6.6915	80.27
6.692	80.32
6.6925	80.32
6.693	80.32
6.6935	80.34
6.694	80.32
6.6945	80.32
6.695	80.32
6.6955	80.32
6.696	80.29
6.6965	80.29
6.697	80.29
6.6975	80.29
6.698	80.29
6.6985	80.29
6.699	80.25
6.6995	80.25
6.7	80.25
6.7005	80.23
6.701	80.21
6.7015	80.21
6.702	80.16
6.7025	80.14
6.703	80.18
6.7035	80.21
6.704	80.14
6.7045	80.14
6.705	80.14
6.7055	80.07
6.706	80.09
6.7065	80.12
6.707	80.12
6.7075	80.07
6.708	80.03
6.7085	80.00
6.709	79.96
6.7095	79.92
6.71	79.85
6.7105	79.80
6.711	79.78
6.7115	79.74
6.712	79.67
6.7125	79.65
6.713	79.60
6.7135	79.56
6.714	79.47
6.7145	79.45
6.715	79.38
6.7155	79.34
6.716	79.29
6.7165	79.22
6.717	79.18
6.7175	79.16
6.718	79.11
6.7185	79.07
6.719	79.02
6.7195	78.98
6.72	78.93
6.7205	78.91
6.721	78.87
6.7215	78.82
6.722	78.80
6.7225	78.78
6.723	78.82
6.7235	78.80
6.724	78.80
6.7245	78.80
6.725	78.76
6.7255	78.73
6.726	78.76
6.7265	78.82
6.727	78.82
6.7275	78.80
6.728	78.78
6.7285	78.78
6.729	78.78
6.7295	78.78
6.73	78.76
6.7305	78.73
6.731	78.73
6.7315	78.76
6.732	78.76
6.7325	78.76
6.733	78.78
6.7335	78.76
6.734	78.73
6.7345	78.76
6.735	78.76
6.7355	78.73
6.736	78.73
6.7365	78.76
6.737	78.78
6.7375	78.78
6.738	78.78
6.7385	78.80
6.739	78.82
6.7395	78.82
6.74	78.85
6.7405	78.89
6.741	78.89
6.7415	78.91
6.742	78.96
6.7425	79.02
6.743	79.11
6.7435	79.14
6.744	79.20
6.7445	79.27
6.745	79.29
6.7455	79.36
6.746	79.47
6.7465	79.56
6.747	79.63
6.7475	79.67
6.748	79.71
6.7485	79.76
6.749	79.83
6.7495	79.89
6.75	79.94
6.7505	79.98
6.751	80.00
6.7515	80.05
6.752	80.12
6.7525	80.18
6.753	80.23
6.7535	80.25
6.754	80.29
6.7545	80.34
6.755	80.36
6.7555	80.41
6.756	80.45
6.7565	80.47
6.757	80.52
6.7575	80.54
6.758	80.56
6.7585	80.58
6.759	80.63
6.7595	80.63
6.76	80.65
6.7605	80.70
6.761	80.72
6.7615	80.72
6.762	80.76
6.7625	80.85
6.763	80.87
6.7635	80.90
6.764	80.94
6.7645	80.94
6.765	80.99
6.7655	81.03
6.766	81.12
6.7665	81.16
6.767	81.16
6.7675	81.19
6.768	81.21
6.7685	81.23
6.769	81.25
6.7695	81.25
6.77	81.28
6.7705	81.30
6.771	81.32
6.7715	81.32
6.772	81.34
6.7725	81.36
6.773	81.39
6.7735	81.34
6.774	81.39
6.7745	81.41
6.775	81.39
6.7755	81.39
6.776	81.36
6.7765	81.39
6.777	81.41
6.7775	81.39
6.778	81.41
6.7785	81.39
6.779	81.36
6.7795	81.36
6.78	81.34
6.7805	81.32
6.781	81.32
6.7815	81.28
6.782	81.30
6.7825	81.32
6.783	81.30
6.7835	81.28
6.784	81.28
6.7845	81.23
6.785	81.23
6.7855	81.23
6.786	81.21
6.7865	81.16
6.787	81.10
6.7875	81.03
6.788	81.01
6.7885	80.96
6.789	80.90
6.7895	80.85
6.79	80.81
6.7905	80.76
6.791	80.70
6.7915	80.63
6.792	80.58
6.7925	80.54
6.793	80.45
6.7935	80.41
6.794	80.36
6.7945	80.29
6.795	80.25
6.7955	80.18
6.796	80.14
6.7965	80.09
6.797	80.05
6.7975	80.00
6.798	79.98
6.7985	79.96
6.799	79.89
6.7995	79.89
6.8	79.87
6.8005	79.85
6.801	79.80
6.8015	79.83
6.802	79.87
6.8025	79.87
6.803	79.85
6.8035	79.87
6.804	79.87
6.8045	79.85
6.805	79.89
6.8055	79.94
6.806	79.96
6.8065	79.94
6.807	79.96
6.8075	79.94
6.808	79.96
6.8085	79.96
6.809	79.96
6.8095	79.96
6.81	79.96
6.8105	79.98
6.811	80.00
6.8115	80.00
6.812	80.03
6.8125	80.03
6.813	80.03
6.8135	80.07
6.814	80.09
6.8145	80.07
6.815	80.12
6.8155	80.14
6.816	80.18
6.8165	80.23
6.817	80.25
6.8175	80.27
6.818	80.32
6.8185	80.38
6.819	80.43
6.8195	80.47
6.82	80.54
6.8205	80.58
6.821	80.65
6.8215	80.76
6.822	80.87
6.8225	80.94
6.823	81.01
6.8235	81.14
6.824	81.16
6.8245	81.25
6.825	81.39
6.8255	81.50
6.826	81.59
6.8265	81.63
6.827	81.70
6.8275	81.79
6.828	81.83
6.8285	81.90
6.829	81.97
6.8295	82.06
6.83	82.10
6.8305	82.14
6.831	82.23
6.8315	82.30
6.832	82.37
6.8325	82.41
6.833	82.46
6.8335	82.52
6.834	82.57
6.8345	82.64
6.835	82.70
6.8355	82.75
6.836	82.79
6.8365	82.86
6.837	82.88
6.8375	82.95
6.838	83.01
6.8385	83.08
6.839	83.13
6.8395	83.19
6.84	83.24
6.8405	83.30
6.841	83.37
6.8415	83.48
6.842	83.59
6.8425	83.64
6.843	83.75
6.8435	83.82
6.844	83.91
6.8445	84.06
6.845	84.20
6.8455	84.29
6.846	84.35
6.8465	84.42
6.847	84.51
6.8475	84.60
6.848	84.64
6.8485	84.73
6.849	84.84
6.8495	84.89
6.85	84.95
6.8505	85.04
6.851	85.11
6.8515	85.20
6.852	85.24
6.8525	85.29
6.853	85.38
6.8535	85.42
6.854	85.47
6.8545	85.51
6.855	85.58
6.8555	85.62
6.856	85.67
6.8565	85.71
6.857	85.76
6.8575	85.78
6.858	85.82
6.8585	85.85
6.859	85.87
6.8595	85.91
6.86	85.93
6.8605	85.93
6.861	85.98
6.8615	86.05
6.862	86.05
6.8625	86.05
6.863	86.09
6.8635	86.11
6.864	86.16
6.8645	86.22
6.865	86.25
6.8655	86.25
6.866	86.25
6.8665	86.25
6.867	86.22
6.8675	86.20
6.868	86.20
6.8685	86.18
6.869	86.14
6.8695	86.14
6.87	86.09
6.8705	86.07
6.871	86.05
6.8715	85.98
6.872	85.93
6.8725	85.89
6.873	85.85
6.8735	85.80
6.874	85.71
6.8745	85.69
6.875	85.65
6.8755	85.56
6.876	85.51
6.8765	85.44
6.877	85.36
6.8775	85.29
6.878	85.22
6.8785	85.13
6.879	85.09
6.8795	84.98
6.88	84.89
6.8805	84.82
6.881	84.78
6.8815	84.73
6.882	84.62
6.8825	84.57
6.883	84.49
6.8835	84.44
6.884	84.44
6.8845	84.42
6.885	84.35
6.8855	84.26
6.886	84.17
6.8865	84.08
6.887	84.04
6.8875	83.97
6.888	83.86
6.8885	83.82
6.889	83.75
6.8895	83.66
6.89	83.62
6.8905	83.57
6.891	83.53
6.8915	83.48
6.892	83.39
6.8925	83.37
6.893	83.37
6.8935	83.30
6.894	83.26
6.8945	83.24
6.895	83.24
6.8955	83.19
6.896	83.17
6.8965	83.17
6.897	83.15
6.8975	83.15
6.898	83.15
6.8985	83.13
6.899	83.13
6.8995	83.13
6.9	83.13
6.9005	83.13
6.901	83.17
6.9015	83.19
6.902	83.19
6.9025	83.22
6.903	83.19
6.9035	83.22
6.904	83.30
6.9045	83.33
6.905	83.33
6.9055	83.33
6.906	83.30
6.9065	83.28
6.907	83.26
6.9075	83.24
6.908	83.22
6.9085	83.17
6.909	83.13
6.9095	83.10
6.91	83.06
6.9105	83.01
6.911	83.01
6.9115	82.95
6.912	82.88
6.9125	82.86
6.913	82.79
6.9135	82.75
6.914	82.72
6.9145	82.68
6.915	82.61
6.9155	82.59
6.916	82.57
6.9165	82.50
6.917	82.48
6.9175	82.46
6.918	82.41
6.9185	82.39
6.919	82.37
6.9195	82.37
6.92	82.35
6.9205	82.30
6.921	82.32
6.9215	82.37
6.922	82.35
6.9225	82.32
6.923	82.35
6.9235	82.35
6.924	82.35
6.9245	82.39
6.925	82.41
6.9255	82.43
6.926	82.43
6.9265	82.43
6.927	82.43
6.9275	82.39
6.928	82.39
6.9285	82.39
6.929	82.37
6.9295	82.35
6.93	82.35
6.9305	82.35
6.931	82.35
6.9315	82.32
6.932	82.30
6.9325	82.28
6.933	82.28
6.9335	82.26
6.934	82.21
6.9345	82.21
6.935	82.19
6.9355	82.19
6.936	82.19
6.9365	82.17
6.937	82.14
6.9375	82.12
6.938	82.12
6.9385	82.10
6.939	82.10
6.9395	82.08
6.94	82.08
6.9405	82.06
6.941	82.06
6.9415	82.12
6.942	82.08
6.9425	82.08
6.943	82.10
6.9435	82.08
6.944	82.12
6.9445	82.17
6.945	82.17
6.9455	82.17
6.946	82.17
6.9465	82.14
6.947	82.12
6.9475	82.10
6.948	82.08
6.9485	82.08
6.949	82.06
6.9495	82.01
6.95	81.97
6.9505	81.97
6.951	81.94
6.9515	81.92
6.952	81.92
6.9525	81.86
6.953	81.83
6.9535	81.83
6.954	81.77
6.9545	81.77
6.955	81.74
6.9555	81.72
6.956	81.72
6.9565	81.70
6.957	81.68
6.9575	81.70
6.958	81.68
6.9585	81.68
6.959	81.70
6.9595	81.70
6.96	81.68
6.9605	81.70
6.961	81.68
6.9615	81.72
6.962	81.79
6.9625	81.79
6.963	81.81
6.9635	81.86
6.964	81.86
6.9645	81.88
6.965	81.94
6.9655	82.01
6.966	82.03
6.9665	82.06
6.967	82.08
6.9675	82.10
6.968	82.10
6.9685	82.10
6.969	82.14
6.9695	82.17
6.97	82.17
6.9705	82.19
6.971	82.21
6.9715	82.26
6.972	82.30
6.9725	82.32
6.973	82.32
6.9735	82.37
6.974	82.39
6.9745	82.41
6.975	82.46
6.9755	82.48
6.976	82.52
6.9765	82.57
6.977	82.61
6.9775	82.66
6.978	82.70
6.9785	82.77
6.979	82.81
6.9795	82.86
6.98	82.90
6.9805	82.97
6.981	83.01
6.9815	83.08
6.982	83.19
6.9825	83.26
6.983	83.30
6.9835	83.39
6.984	83.44
6.9845	83.50
6.985	83.62
6.9855	83.68
6.986	83.77
6.9865	83.82
6.987	83.84
6.9875	83.91
6.988	83.93
6.9885	83.97
6.989	84.02
6.9895	84.06
6.99	84.06
6.9905	84.08
6.991	84.13
6.9915	84.17
6.992	84.20
6.9925	84.22
6.993	84.24
6.9935	84.26
6.994	84.31
6.9945	84.31
6.995	84.33
6.9955	84.37
6.996	84.40
6.9965	84.42
6.997	84.44
6.9975	84.49
6.998	84.53
6.9985	84.55
6.999	84.60
6.9995	84.64
7	84.66
7.0005	84.71
7.001	84.78
7.0015	84.80
7.002	84.84
7.0025	84.95
7.003	85.00
7.0035	85.02
7.004	85.09
7.0045	85.13
7.005	85.20
7.0055	85.29
7.006	85.36
7.0065	85.42
7.007	85.47
7.0075	85.51
7.008	85.53
7.0085	85.56
7.009	85.60
7.0095	85.62
7.01	85.65
7.0105	85.67
7.011	85.67
7.0115	85.69
7.012	85.71
7.0125	85.76
7.013	85.76
7.0135	85.73
7.014	85.78
7.0145	85.80
7.015	85.80
7.0155	85.80
7.016	85.80
7.0165	85.80
7.017	85.80
7.0175	85.80
7.018	85.80
7.0185	85.78
7.019	85.78
7.0195	85.76
7.02	85.73
7.0205	85.73
7.021	85.69
7.0215	85.67
7.022	85.65
7.0225	85.67
7.023	85.67
7.0235	85.60
7.024	85.62
7.0245	85.60
7.025	85.58
7.0255	85.58
7.026	85.56
7.0265	85.51
7.027	85.47
7.0275	85.40
7.028	85.31
7.0285	85.27
7.029	85.18
7.0295	85.09
7.03	85.00
7.0305	84.93
7.031	84.84
7.0315	84.73
7.032	84.64
7.0325	84.55
7.033	84.46
7.0335	84.33
7.034	84.26
7.0345	84.17
7.035	84.04
7.0355	83.93
7.036	83.84
7.0365	83.73
7.037	83.62
7.0375	83.53
7.038	83.42
7.0385	83.30
7.039	83.19
7.0395	83.10
7.04	82.99
7.0405	82.90
7.041	82.79
7.0415	82.66
7.042	82.59
7.0425	82.52
7.043	82.41
7.0435	82.32
7.044	82.26
7.0445	82.12
7.045	82.10
7.0455	82.03
7.046	81.97
7.0465	81.90
7.047	81.81
7.0475	81.72
7.048	81.63
7.0485	81.57
7.049	81.50
7.0495	81.45
7.05	81.41
7.0505	81.36
7.051	81.32
7.0515	81.30
7.052	81.28
7.0525	81.25
7.053	81.25
7.0535	81.21
7.054	81.23
7.0545	81.25
7.055	81.23
7.0555	81.28
7.056	81.28
7.0565	81.30
7.057	81.34
7.0575	81.36
7.058	81.36
7.0585	81.39
7.059	81.45
7.0595	81.48
7.06	81.50
7.0605	81.54
7.061	81.59
7.0615	81.61
7.062	81.68
7.0625	81.74
7.063	81.77
7.0635	81.81
7.064	81.79
7.0645	81.81
7.065	81.88
7.0655	81.94
7.066	81.99
7.0665	82.01
7.067	82.03
7.0675	82.03
7.068	82.03
7.0685	82.06
7.069	82.06
7.0695	82.08
7.07	82.08
7.0705	82.08
7.071	82.08
7.0715	82.10
7.072	82.12
7.0725	82.14
7.073	82.10
7.0735	82.12
7.074	82.14
7.0745	82.14
7.075	82.12
7.0755	82.14
7.076	82.17
7.0765	82.14
7.077	82.17
7.0775	82.19
7.078	82.19
7.0785	82.21
7.079	82.23
7.0795	82.26
7.08	82.26
7.0805	82.26
7.081	82.30
7.0815	82.30
7.082	82.37
7.0825	82.41
7.083	82.41
7.0835	82.46
7.084	82.48
7.0845	82.50
7.085	82.59
7.0855	82.64
7.086	82.68
7.0865	82.72
7.087	82.72
7.0875	82.75
7.088	82.75
7.0885	82.77
7.089	82.77
7.0895	82.77
7.09	82.77
7.0905	82.79
7.091	82.79
7.0915	82.79
7.092	82.81
7.0925	82.81
7.093	82.79
7.0935	82.81
7.094	82.84
7.0945	82.79
7.095	82.77
7.0955	82.77
7.096	82.77
7.0965	82.77
7.097	82.75
7.0975	82.72
7.098	82.72
7.0985	82.68
7.099	82.66
7.0995	82.66
7.1	82.64
7.1005	82.59
7.101	82.55
7.1015	82.52
7.102	82.55
7.1025	82.52
7.103	82.46
7.1035	82.46
7.104	82.37
7.1045	82.35
7.105	82.35
7.1055	82.32
7.106	82.30
7.1065	82.26
7.107	82.19
7.1075	82.14
7.108	82.08
7.1085	82.01
7.109	81.94
7.1095	81.90
7.11	81.83
7.1105	81.77
7.111	81.70
7.1115	81.65
7.112	81.61
7.1125	81.54
7.113	81.45
7.1135	81.43
7.114	81.36
7.1145	81.28
7.115	81.21
7.1155	81.14
7.116	81.10
7.1165	81.01
7.117	80.94
7.1175	80.90
7.118	80.83
7.1185	80.76
7.119	80.67
7.1195	80.61
7.12	80.54
7.1205	80.47
7.121	80.41
7.1215	80.36
7.122	80.34
7.1225	80.29
7.123	80.23
7.1235	80.18
7.124	80.09
7.1245	80.05
7.125	80.09
7.1255	80.07
7.126	80.05
7.1265	80.00
7.127	79.96
7.1275	79.94
7.128	79.92
7.1285	79.92
7.129	79.89
7.1295	79.89
7.13	79.87
7.1305	79.87
7.131	79.87
7.1315	79.92
7.132	79.94
7.1325	79.96
7.133	79.96
7.1335	80.00
7.134	80.05
7.1345	80.03
7.135	80.07
7.1355	80.12
7.136	80.16
7.1365	80.21
7.137	80.25
7.1375	80.29
7.138	80.34
7.1385	80.41
7.139	80.45
7.1395	80.50
7.14	80.54
7.1405	80.61
7.141	80.67
7.1415	80.76
7.142	80.85
7.1425	80.90
7.143	80.99
7.1435	81.03
7.144	81.05
7.1445	81.16
7.145	81.28
7.1455	81.36
7.146	81.43
7.1465	81.48
7.147	81.54
7.1475	81.59
7.148	81.65
7.1485	81.70
7.149	81.77
7.1495	81.83
7.15	81.86
7.1505	81.90
7.151	81.94
7.1515	82.01
7.152	82.06
7.1525	82.06
7.153	82.12
7.1535	82.17
7.154	82.17
7.1545	82.21
7.155	82.23
7.1555	82.26
7.156	82.28
7.1565	82.30
7.157	82.32
7.1575	82.37
7.158	82.37
7.1585	82.39
7.159	82.41
7.1595	82.43
7.16	82.46
7.1605	82.48
7.161	82.50
7.1615	82.57
7.162	82.64
7.1625	82.66
7.163	82.70
7.1635	82.70
7.164	82.77
7.1645	82.86
7.165	82.93
7.1655	82.99
7.166	83.01
7.1665	83.04
7.167	83.06
7.1675	83.10
7.168	83.13
7.1685	83.17
7.169	83.19
7.1695	83.22
7.17	83.26
7.1705	83.28
7.171	83.30
7.1715	83.35
7.172	83.39
7.1725	83.39
7.173	83.42
7.1735	83.46
7.174	83.48
7.1745	83.50
7.175	83.50
7.1755	83.50
7.176	83.53
7.1765	83.53
7.177	83.53
7.1775	83.53
7.178	83.55
7.1785	83.53
7.179	83.50
7.1795	83.50
7.18	83.53
7.1805	83.50
7.181	83.48
7.1815	83.53
7.182	83.50
7.1825	83.48
7.183	83.48
7.1835	83.44
7.184	83.44
7.1845	83.46
7.185	83.46
7.1855	83.44
7.186	83.42
7.1865	83.39
7.187	83.35
7.1875	83.30
7.188	83.26
7.1885	83.22
7.189	83.19
7.1895	83.13
7.19	83.08
7.1905	83.04
7.191	83.01
7.1915	82.97
7.192	82.88
7.1925	82.84
7.193	82.81
7.1935	82.75
7.194	82.68
7.1945	82.61
7.195	82.57
7.1955	82.48
7.196	82.43
7.1965	82.37
7.197	82.28
7.1975	82.23
7.198	82.14
7.1985	82.06
7.199	81.99
7.1995	81.90
7.2	81.83
7.2005	81.74
7.201	81.65
7.2015	81.57
7.202	81.54
7.2025	81.45
7.203	81.36
7.2035	81.28
7.204	81.14
7.2045	81.12
7.205	81.10
7.2055	81.03
7.206	80.99
7.2065	80.90
7.207	80.83
7.2075	80.76
7.208	80.67
7.2085	80.61
7.209	80.52
7.2095	80.50
7.21	80.45
7.2105	80.38
7.211	80.34
7.2115	80.32
7.212	80.29
7.2125	80.25
7.213	80.18
7.2135	80.18
7.214	80.16
7.2145	80.12
7.215	80.12
7.2155	80.09
7.216	80.09
7.2165	80.09
7.217	80.07
7.2175	80.07
7.218	80.07
7.2185	80.07
7.219	80.05
7.2195	80.05
7.22	80.05
7.2205	80.05
7.221	80.03
7.2215	80.05
7.222	80.09
7.2225	80.05
7.223	80.07
7.2235	80.05
7.224	79.98
7.2245	80.05
7.225	80.07
7.2255	80.07
7.226	80.07
7.2265	80.05
7.227	80.03
7.2275	80.00
7.228	79.98
7.2285	79.96
7.229	79.94
7.2295	79.92
7.23	79.89
7.2305	79.87
7.231	79.83
7.2315	79.83
7.232	79.80
7.2325	79.78
7.233	79.76
7.2335	79.76
7.234	79.74
7.2345	79.74
7.235	79.71
7.2355	79.69
7.236	79.69
7.2365	79.71
7.237	79.71
7.2375	79.71
7.238	79.74
7.2385	79.74
7.239	79.76
7.2395	79.78
7.24	79.78
7.2405	79.80
7.241	79.83
7.2415	79.87
7.242	79.92
7.2425	79.94
7.243	79.98
7.2435	79.94
7.244	79.96
7.2445	80.05
7.245	80.12
7.2455	80.16
7.246	80.18
7.2465	80.21
7.247	80.25
7.2475	80.25
7.248	80.27
7.2485	80.27
7.249	80.29
7.2495	80.32
7.25	80.34
7.2505	80.38
7.251	80.41
7.2515	80.41
7.252	80.45
7.2525	80.45
7.253	80.47
7.2535	80.52
7.254	80.50
7.2545	80.52
7.255	80.56
7.2555	80.54
7.256	80.56
7.2565	80.58
7.257	80.58
7.2575	80.63
7.258	80.63
7.2585	80.63
7.259	80.65
7.2595	80.70
7.26	80.70
7.2605	80.74
7.261	80.74
7.2615	80.79
7.262	80.83
7.2625	80.83
7.263	80.85
7.2635	80.83
7.264	80.81
7.2645	80.90
7.265	80.92
7.2655	80.94
7.266	80.96
7.2665	80.96
7.267	80.96
7.2675	80.96
7.268	80.94
7.2685	80.94
7.269	80.94
7.2695	80.94
7.27	80.94
7.2705	80.92
7.271	80.92
7.2715	80.92
7.272	80.90
7.2725	80.87
7.273	80.87
7.2735	80.85
7.274	80.83
7.2745	80.81
7.275	80.79
7.2755	80.79
7.276	80.74
7.2765	80.74
7.277	80.74
7.2775	80.70
7.278	80.70
7.2785	80.70
7.279	80.67
7.2795	80.65
7.28	80.65
7.2805	80.65
7.281	80.65
7.2815	80.72
7.282	80.70
7.2825	80.72
7.283	80.74
7.2835	80.70
7.284	80.74
7.2845	80.81
7.285	80.85
7.2855	80.90
7.286	80.92
7.2865	80.92
7.287	80.96
7.2875	80.99
7.288	81.01
7.2885	81.05
7.289	81.07
7.2895	81.10
7.29	81.14
7.2905	81.16
7.291	81.21
7.2915	81.25
7.292	81.28
7.2925	81.30
7.293	81.34
7.2935	81.36
7.294	81.39
7.2945	81.41
7.295	81.43
7.2955	81.48
7.296	81.50
7.2965	81.54
7.297	81.57
7.2975	81.59
7.298	81.61
7.2985	81.63
7.299	81.68
7.2995	81.68
7.3	81.72
7.3005	81.74
7.301	81.79
7.3015	81.88
7.302	81.90
7.3025	81.94
7.303	81.97
7.3035	81.97
7.304	82.06
7.3045	82.14
7.305	82.21
7.3055	82.26
7.306	82.28
7.3065	82.30
7.307	82.37
7.3075	82.39
7.308	82.43
7.3085	82.48
7.309	82.52
7.3095	82.55
7.31	82.57
7.3105	82.61
7.311	82.66
7.3115	82.70
7.312	82.72
7.3125	82.75
7.313	82.79
7.3135	82.81
7.314	82.84
7.3145	82.86
7.315	82.90
7.3155	82.93
7.316	82.93
7.3165	82.95
7.317	82.97
7.3175	83.01
7.318	83.01
7.3185	83.04
7.319	83.06
7.3195	83.08
7.32	83.10
7.3205	83.10
7.321	83.15
7.3215	83.24
7.322	83.24
7.3225	83.28
7.323	83.28
7.3235	83.26
7.324	83.39
7.3245	83.46
7.325	83.48
7.3255	83.53
7.326	83.55
7.3265	83.57
7.327	83.59
7.3275	83.62
7.328	83.62
7.3285	83.64
7.329	83.68
7.3295	83.71
7.33	83.71
7.3305	83.71
7.331	83.73
7.3315	83.75
7.332	83.73
7.3325	83.75
7.333	83.75
7.3335	83.75
7.334	83.73
7.3345	83.73
7.335	83.73
7.3355	83.71
7.336	83.68
7.3365	83.68
7.337	83.66
7.3375	83.64
7.338	83.59
7.3385	83.59
7.339	83.55
7.3395	83.53
7.34	83.48
7.3405	83.44
7.341	83.46
7.3415	83.46
7.342	83.39
7.3425	83.37
7.343	83.28
7.3435	83.28
7.344	83.33
7.3445	83.28
7.345	83.26
7.3455	83.22
7.346	83.15
7.3465	83.10
7.347	83.04
7.3475	82.97
7.348	82.93
7.3485	82.86
7.349	82.79
7.3495	82.72
7.35	82.66
7.3505	82.61
7.351	82.55
7.3515	82.48
7.352	82.41
7.3525	82.35
7.353	82.30
7.3535	82.21
7.354	82.14
7.3545	82.08
7.355	81.99
7.3555	81.94
7.356	81.90
7.3565	81.81
7.357	81.77
7.3575	81.70
7.358	81.65
7.3585	81.59
7.359	81.52
7.3595	81.50
7.36	81.45
7.3605	81.43
7.361	81.43
7.3615	81.36
7.362	81.34
7.3625	81.32
7.363	81.23
7.3635	81.23
7.364	81.28
7.3645	81.25
7.365	81.23
7.3655	81.21
7.366	81.19
7.3665	81.16
7.367	81.14
7.3675	81.10
7.368	81.07
7.3685	81.05
7.369	81.03
7.3695	81.03
7.37	81.03
7.3705	81.03
7.371	81.01
7.3715	81.01
7.372	81.01
7.3725	81.01
7.373	81.03
7.3735	81.03
7.374	81.05
7.3745	81.07
7.375	81.05
7.3755	81.07
7.376	81.10
7.3765	81.12
7.377	81.14
7.3775	81.16
7.378	81.19
7.3785	81.23
7.379	81.28
7.3795	81.30
7.38	81.32
7.3805	81.36
7.381	81.48
7.3815	81.50
7.382	81.54
7.3825	81.57
7.383	81.59
7.3835	81.70
7.384	81.77
7.3845	81.81
7.385	81.86
7.3855	81.92
7.386	81.97
7.3865	81.99
7.387	82.06
7.3875	82.08
7.388	82.08
7.3885	82.12
7.389	82.17
7.3895	82.19
7.39	82.23
7.3905	82.26
7.391	82.30
7.3915	82.30
7.392	82.32
7.3925	82.39
7.393	82.41
7.3935	82.43
7.394	82.46
7.3945	82.48
7.395	82.50
7.3955	82.52
7.396	82.55
7.3965	82.59
7.397	82.61
7.3975	82.64
7.398	82.68
7.3985	82.72
7.399	82.75
7.3995	82.77
7.4	82.81
7.4005	82.90
7.401	82.97
7.4015	83.01
7.402	83.10
7.4025	83.10
7.403	83.15
7.4035	83.28
7.404	83.37
7.4045	83.46
7.405	83.53
7.4055	83.57
7.406	83.64
7.4065	83.71
7.407	83.79
7.4075	83.84
7.408	83.91
7.4085	84.00
7.409	84.02
7.4095	84.08
7.41	84.15
7.4105	84.17
7.411	84.24
7.4115	84.29
7.412	84.33
7.4125	84.40
7.413	84.42
7.4135	84.44
7.414	84.51
7.4145	84.55
7.415	84.55
7.4155	84.57
7.416	84.60
7.4165	84.64
7.417	84.66
7.4175	84.66
7.418	84.69
7.4185	84.69
7.419	84.71
7.4195	84.69
7.42	84.69
7.4205	84.69
7.421	84.73
7.4215	84.73
7.422	84.71
7.4225	84.73
7.423	84.69
7.4235	84.62
7.424	84.66
7.4245	84.71
7.425	84.69
7.4255	84.66
7.426	84.64
7.4265	84.62
7.427	84.55
7.4275	84.55
7.428	84.51
7.4285	84.46
7.429	84.42
7.4295	84.35
7.43	84.31
7.4305	84.26
7.431	84.22
7.4315	84.17
7.432	84.11
7.4325	84.06
7.433	84.04
7.4335	83.97
7.434	83.91
7.4345	83.84
7.435	83.77
7.4355	83.71
7.436	83.66
7.4365	83.59
7.437	83.53
7.4375	83.44
7.438	83.39
7.4385	83.33
7.439	83.26
7.4395	83.17
7.44	83.15
7.4405	83.10
7.441	83.04
7.4415	83.04
7.442	82.99
7.4425	82.97
7.443	82.90
7.4435	82.84
7.444	82.90
7.4445	82.90
7.445	82.90
7.4455	82.88
7.446	82.86
7.4465	82.86
7.447	82.86
7.4475	82.84
7.448	82.81
7.4485	82.81
7.449	82.84
7.4495	82.86
7.45	82.86
7.4505	82.88
7.451	82.90
7.4515	82.93
7.452	82.90
7.4525	82.95
7.453	82.97
7.4535	82.99
7.454	83.01
7.4545	83.08
7.455	83.13
7.4555	83.17
7.456	83.24
7.4565	83.28
7.457	83.33
7.4575	83.39
7.458	83.48
7.4585	83.53
7.459	83.57
7.4595	83.66
7.46	83.71
7.4605	83.79
7.461	83.88
7.4615	83.95
7.462	84.04
7.4625	84.11
7.463	84.20
7.4635	84.24
7.464	84.29
7.4645	84.44
7.465	84.53
7.4655	84.62
7.466	84.69
7.4665	84.71
7.467	84.78
7.4675	84.84
7.468	84.89
7.4685	84.93
7.469	84.98
7.4695	85.02
7.47	85.07
7.4705	85.09
7.471	85.15
7.4715	85.18
7.472	85.22
7.4725	85.27
7.473	85.29
7.4735	85.33
7.474	85.38
7.4745	85.40
7.475	85.44
7.4755	85.51
7.476	85.56
7.4765	85.58
7.477	85.62
7.4775	85.69
7.478	85.76
7.4785	85.80
7.479	85.87
7.4795	85.93
7.48	85.98
7.4805	86.05
7.481	86.11
7.4815	86.18
7.482	86.29
7.4825	86.34
7.483	86.43
7.4835	86.49
7.484	86.54
7.4845	86.67
7.485	86.78
7.4855	86.85
7.486	86.92
7.4865	86.98
7.487	87.05
7.4875	87.09
7.488	87.14
7.4885	87.18
7.489	87.25
7.4895	87.29
7.49	87.36
7.4905	87.38
7.491	87.43
7.4915	87.45
7.492	87.52
7.4925	87.54
7.493	87.56
7.4935	87.61
7.494	87.63
7.4945	87.65
7.495	87.70
7.4955	87.72
7.496	87.72
7.4965	87.72
7.497	87.76
7.4975	87.76
7.498	87.74
7.4985	87.76
7.499	87.76
7.4995	87.74
7.5	87.72
7.5005	87.74
7.501	87.72
7.5015	87.70
7.502	87.70
7.5025	87.67
7.503	87.65
7.5035	87.63
7.504	87.63
7.5045	87.63
7.505	87.63
7.5055	87.61
7.506	87.56
7.5065	87.52
7.507	87.50
7.5075	87.43
7.508	87.34
7.5085	87.29
7.509	87.23
7.5095	87.16
7.51	87.12
7.5105	87.03
7.511	86.96
7.5115	86.92
7.512	86.87
7.5125	86.78
7.513	86.69
7.5135	86.67
7.514	86.58
7.5145	86.51
7.515	86.47
7.5155	86.36
7.516	86.29
7.5165	86.25
7.517	86.18
7.5175	86.09
7.518	86.02
7.5185	85.96
7.519	85.89
7.5195	85.82
7.52	85.73
7.5205	85.67
7.521	85.60
7.5215	85.56
7.522	85.51
7.5225	85.42
7.523	85.38
7.5235	85.31
7.524	85.27
7.5245	85.27
7.525	85.22
7.5255	85.15
7.526	85.07
7.5265	85.02
7.527	84.95
7.5275	84.86
7.528	84.82
7.5285	84.75
7.529	84.66
7.5295	84.62
7.53	84.55
7.5305	84.49
7.531	84.44
7.5315	84.37
7.532	84.33
7.5325	84.26
7.533	84.22
7.5335	84.17
7.534	84.13
7.5345	84.11
7.535	84.06
7.5355	84.02
7.536	84.00
7.5365	83.97
7.537	83.95
7.5375	83.93
7.538	83.93
7.5385	83.91
7.539	83.88
7.5395	83.88
7.54	83.86
7.5405	83.86
7.541	83.88
7.5415	83.93
7.542	83.93
7.5425	83.93
7.543	83.95
7.5435	83.93
7.544	83.93
7.5445	84.02
7.545	84.04
7.5455	84.06
7.546	84.08
7.5465	84.08
7.547	84.08
7.5475	84.11
7.548	84.11
7.5485	84.13
7.549	84.13
7.5495	84.15
7.55	84.15
7.5505	84.15
7.551	84.17
7.5515	84.20
7.552	84.20
7.5525	84.20
7.553	84.20
7.5535	84.22
7.554	84.22
7.5545	84.24
7.555	84.24
7.5555	84.26
7.556	84.29
7.5565	84.31
7.557	84.33
7.5575	84.35
7.558	84.37
7.5585	84.40
7.559	84.42
7.5595	84.42
7.56	84.44
7.5605	84.49
7.561	84.51
7.5615	84.57
7.562	84.60
7.5625	84.62
7.563	84.64
7.5635	84.64
7.564	84.71
7.5645	84.78
7.565	84.82
7.5655	84.86
7.566	84.89
7.5665	84.93
7.567	84.95
7.5675	84.98
7.568	85.02
7.5685	85.04
7.569	85.09
7.5695	85.13
7.57	85.18
7.5705	85.20
7.571	85.24
7.5715	85.29
7.572	85.33
7.5725	85.36
7.573	85.40
7.5735	85.44
7.574	85.49
7.5745	85.56
7.575	85.60
7.5755	85.65
7.576	85.67
7.5765	85.71
7.577	85.76
7.5775	85.80
7.578	85.85
7.5785	85.89
7.579	85.93
7.5795	85.98
7.58	86.02
7.5805	86.05
7.581	86.09
7.5815	86.16
7.582	86.18
7.5825	86.22
7.583	86.27
7.5835	86.29
7.584	86.38
7.5845	86.45
7.585	86.49
7.5855	86.54
7.586	86.56
7.5865	86.56
7.587	86.58
7.5875	86.60
7.588	86.60
7.5885	86.63
7.589	86.65
7.5895	86.63
7.59	86.63
7.5905	86.63
7.591	86.63
7.5915	86.63
7.592	86.60
7.5925	86.63
7.593	86.63
7.5935	86.58
7.594	86.56
7.5945	86.56
7.595	86.56
7.5955	86.54
7.596	86.49
7.5965	86.49
7.597	86.47
7.5975	86.47
7.598	86.45
7.5985	86.43
7.599	86.40
7.5995	86.38
7.6	86.38
7.6005	86.38
7.601	86.38
7.6015	86.40
7.602	86.40
7.6025	86.40
7.603	86.38
7.6035	86.38
7.604	86.45
7.6045	86.51
7.605	86.51
7.6055	86.54
7.606	86.56
7.6065	86.58
7.607	86.60
7.6075	86.63
7.608	86.63
7.6085	86.65
7.609	86.67
7.6095	86.72
7.61	86.76
7.6105	86.78
7.611	86.83
7.6115	86.85
7.612	86.85
7.6125	86.89
7.613	86.92
7.6135	86.96
7.614	86.98
7.6145	87.00
7.615	87.03
7.6155	87.05
7.616	87.07
7.6165	87.12
7.617	87.12
7.6175	87.16
7.618	87.16
7.6185	87.18
7.619	87.21
7.6195	87.25
7.62	87.27
7.6205	87.29
7.621	87.36
7.6215	87.43
7.622	87.45
7.6225	87.50
7.623	87.52
7.6235	87.58
7.624	87.67
7.6245	87.74
7.625	87.83
7.6255	87.85
7.626	87.87
7.6265	87.90
7.627	87.96
7.6275	87.99
7.628	88.03
7.6285	88.05
7.629	88.08
7.6295	88.12
7.63	88.16
7.6305	88.19
7.631	88.23
7.6315	88.23
7.632	88.28
7.6325	88.28
7.633	88.30
7.6335	88.32
7.634	88.34
7.6345	88.36
7.635	88.39
7.6355	88.41
7.636	88.39
7.6365	88.39
7.637	88.41
7.6375	88.41
7.638	88.41
7.6385	88.41
7.639	88.39
7.6395	88.41
7.64	88.39
7.6405	88.39
7.641	88.41
7.6415	88.43
7.642	88.41
7.6425	88.41
7.643	88.41
7.6435	88.48
7.644	88.54
7.6445	88.54
7.645	88.52
7.6455	88.50
7.646	88.52
7.6465	88.50
7.647	88.48
7.6475	88.48
7.648	88.45
7.6485	88.43
7.649	88.41
7.6495	88.39
7.65	88.36
7.6505	88.34
7.651	88.32
7.6515	88.30
7.652	88.25
7.6525	88.25
7.653	88.21
7.6535	88.16
7.654	88.14
7.6545	88.10
7.655	88.05
7.6555	88.01
7.656	87.99
7.6565	87.94
7.657	87.90
7.6575	87.87
7.658	87.83
7.6585	87.76
7.659	87.74
7.6595	87.72
7.66	87.65
7.6605	87.61
7.661	87.63
7.6615	87.56
7.662	87.54
7.6625	87.50
7.663	87.45
7.6635	87.47
7.664	87.45
7.6645	87.45
7.665	87.41
7.6655	87.36
7.666	87.32
7.6665	87.27
7.667	87.21
7.6675	87.14
7.668	87.12
7.6685	87.05
7.669	86.98
7.6695	86.96
7.67	86.89
7.6705	86.85
7.671	86.80
7.6715	86.72
7.672	86.67
7.6725	86.63
7.673	86.56
7.6735	86.51
7.674	86.43
7.6745	86.38
7.675	86.31
7.6755	86.25
7.676	86.18
7.6765	86.14
7.677	86.07
7.6775	86.00
7.678	85.93
7.6785	85.89
7.679	85.85
7.6795	85.78
7.68	85.71
7.6805	85.71
7.681	85.69
7.6815	85.65
7.682	85.62
7.6825	85.58
7.683	85.58
7.6835	85.62
7.684	85.62
7.6845	85.62
7.685	85.60
7.6855	85.60
7.686	85.60
7.6865	85.60
7.687	85.58
7.6875	85.58
7.688	85.58
7.6885	85.58
7.689	85.60
7.6895	85.60
7.69	85.62
7.6905	85.65
7.691	85.65
7.6915	85.65
7.692	85.67
7.6925	85.69
7.693	85.71
7.6935	85.73
7.694	85.78
7.6945	85.78
7.695	85.80
7.6955	85.85
7.696	85.87
7.6965	85.91
7.697	85.93
7.6975	85.96
7.698	86.00
7.6985	86.02
7.699	86.07
7.6995	86.09
7.7	86.14
7.7005	86.22
7.701	86.29
7.7015	86.31
7.702	86.40
7.7025	86.43
7.703	86.51
7.7035	86.63
7.704	86.67
7.7045	86.76
7.705	86.83
7.7055	86.89
7.706	86.94
7.7065	87.00
7.707	87.09
7.7075	87.16
7.708	87.23
7.7085	87.32
7.709	87.36
7.7095	87.43
7.71	87.52
7.7105	87.58
7.711	87.65
7.7115	87.72
7.712	87.79
7.7125	87.87
7.713	87.90
7.7135	87.96
7.714	88.03
7.7145	88.08
7.715	88.12
7.7155	88.16
7.716	88.21
7.7165	88.25
7.717	88.30
7.7175	88.34
7.718	88.36
7.7185	88.41
7.719	88.43
7.7195	88.45
7.72	88.50
7.7205	88.54
7.721	88.57
7.7215	88.57
7.722	88.59
7.7225	88.59
7.723	88.63
7.7235	88.72
7.724	88.74
7.7245	88.77
7.725	88.77
7.7255	88.77
7.726	88.77
7.7265	88.77
7.727	88.77
7.7275	88.74
7.728	88.74
7.7285	88.77
7.729	88.77
7.7295	88.74
7.73	88.72
7.7305	88.72
7.731	88.70
7.7315	88.70
7.732	88.68
7.7325	88.65
7.733	88.61
7.7335	88.61
7.734	88.59
7.7345	88.57
7.735	88.52
7.7355	88.48
7.736	88.45
7.7365	88.41
7.737	88.36
7.7375	88.32
7.738	88.28
7.7385	88.23
7.739	88.16
7.7395	88.12
7.74	88.10
7.7405	88.05
7.741	87.99
7.7415	87.92
7.742	87.87
7.7425	87.79
7.743	87.79
7.7435	87.81
7.744	87.76
7.7445	87.70
7.745	87.63
7.7455	87.56
7.746	87.47
7.7465	87.38
7.747	87.29
7.7475	87.25
7.748	87.16
7.7485	87.05
7.749	86.96
7.7495	86.89
7.75	86.80
7.7505	86.72
7.751	86.63
7.7515	86.54
7.752	86.45
7.7525	86.36
7.753	86.27
7.7535	86.18
7.754	86.07
7.7545	85.98
7.755	85.87
7.7555	85.80
7.756	85.71
7.7565	85.60
7.757	85.51
7.7575	85.42
7.758	85.33
7.7585	85.22
7.759	85.13
7.7595	85.04
7.76	84.95
7.7605	84.89
7.761	84.78
7.7615	84.69
7.762	84.60
7.7625	84.51
7.763	84.53
7.7635	84.44
7.764	84.37
7.7645	84.31
7.765	84.22
7.7655	84.15
7.766	84.08
7.7665	84.02
7.767	83.97
7.7675	83.91
7.768	83.86
7.7685	83.82
7.769	83.77
7.7695	83.73
7.77	83.71
7.7705	83.68
7.771	83.64
7.7715	83.59
7.772	83.57
7.7725	83.57
7.773	83.55
7.7735	83.53
7.774	83.50
7.7745	83.50
7.775	83.50
7.7755	83.50
7.776	83.53
7.7765	83.53
7.777	83.53
7.7775	83.53
7.778	83.55
7.7785	83.57
7.779	83.59
7.7795	83.59
7.78	83.62
7.7805	83.66
7.781	83.71
7.7815	83.71
7.782	83.75
7.7825	83.79
7.783	83.79
7.7835	83.91
7.784	83.97
7.7845	84.02
7.785	84.06
7.7855	84.08
7.786	84.13
7.7865	84.15
7.787	84.20
7.7875	84.24
7.788	84.29
7.7885	84.31
7.789	84.33
7.7895	84.37
7.79	84.40
7.7905	84.44
7.791	84.46
7.7915	84.51
7.792	84.53
7.7925	84.55
7.793	84.60
7.7935	84.62
7.794	84.62
7.7945	84.66
7.795	84.71
7.7955	84.73
7.796	84.73
7.7965	84.78
7.797	84.82
7.7975	84.84
7.798	84.89
7.7985	84.91
7.799	84.95
7.7995	85.00
7.8	85.02
7.8005	85.09
7.801	85.15
7.8015	85.20
7.802	85.22
7.8025	85.27
7.803	85.31
7.8035	85.40
7.804	85.49
7.8045	85.53
7.805	85.56
7.8055	85.60
7.806	85.65
7.8065	85.69
7.807	85.73
7.8075	85.76
7.808	85.80
7.8085	85.82
7.809	85.87
7.8095	85.91
7.81	85.93
7.8105	85.98
7.811	86.00
7.8115	86.02
7.812	86.07
7.8125	86.09
7.813	86.09
7.8135	86.09
7.814	86.09
7.8145	86.09
7.815	86.09
7.8155	86.11
7.816	86.14
7.8165	86.14
7.817	86.11
7.8175	86.11
7.818	86.11
7.8185	86.11
7.819	86.09
7.8195	86.07
7.82	86.07
7.8205	86.07
7.821	86.09
7.8215	86.05
7.822	86.02
7.8225	86.02
7.823	85.96
7.8235	86.02
7.824	86.02
7.8245	85.98
7.825	85.98
7.8255	85.91
7.826	85.87
7.8265	85.82
7.827	85.78
7.8275	85.71
7.828	85.65
7.8285	85.60
7.829	85.51
7.8295	85.44
7.83	85.38
7.8305	85.29
7.831	85.22
7.8315	85.15
7.832	85.09
7.8325	85.02
7.833	84.91
7.8335	84.82
7.834	84.73
7.8345	84.64
7.835	84.55
7.8355	84.46
7.836	84.37
7.8365	84.31
7.837	84.22
7.8375	84.13
7.838	84.04
7.8385	83.95
7.839	83.86
7.8395	83.79
7.84	83.68
7.8405	83.62
7.841	83.59
7.8415	83.46
7.842	83.39
7.8425	83.33
7.843	83.24
7.8435	83.24
7.844	83.15
7.8445	83.06
7.845	82.99
7.8455	82.90
7.846	82.81
7.8465	82.70
7.847	82.61
7.8475	82.50
7.848	82.41
7.8485	82.30
7.849	82.21
7.8495	82.12
7.85	82.03
7.8505	81.94
7.851	81.88
7.8515	81.77
7.852	81.70
7.8525	81.63
7.853	81.54
7.8535	81.45
7.854	81.41
7.8545	81.36
7.855	81.30
7.8555	81.25
7.856	81.23
7.8565	81.19
7.857	81.16
7.8575	81.14
7.858	81.12
7.8585	81.12
7.859	81.10
7.8595	81.07
7.86	81.07
7.8605	81.12
7.861	81.14
7.8615	81.14
7.862	81.19
7.8625	81.19
7.863	81.23
7.8635	81.30
7.864	81.34
7.8645	81.39
7.865	81.43
7.8655	81.45
7.866	81.50
7.8665	81.54
7.867	81.59
7.8675	81.63
7.868	81.68
7.8685	81.72
7.869	81.77
7.8695	81.79
7.87	81.83
7.8705	81.88
7.871	81.90
7.8715	81.94
7.872	81.97
7.8725	82.01
7.873	82.03
7.8735	82.03
7.874	82.03
7.8745	82.06
7.875	82.10
7.8755	82.12
7.876	82.14
7.8765	82.14
7.877	82.17
7.8775	82.17
7.878	82.17
7.8785	82.19
7.879	82.19
7.8795	82.21
7.88	82.21
7.8805	82.21
7.881	82.23
7.8815	82.26
7.882	82.23
7.8825	82.26
7.883	82.26
7.8835	82.26
7.884	82.30
7.8845	82.30
7.885	82.30
7.8855	82.32
7.886	82.32
7.8865	82.28
7.887	82.28
7.8875	82.30
7.888	82.30
7.8885	82.30
7.889	82.28
7.8895	82.30
7.89	82.30
7.8905	82.30
7.891	82.30
7.8915	82.30
7.892	82.28
7.8925	82.28
7.893	82.28
7.8935	82.28
7.894	82.23
7.8945	82.23
7.895	82.21
7.8955	82.19
7.896	82.19
7.8965	82.14
7.897	82.12
7.8975	82.12
7.898	82.08
7.8985	82.06
7.899	82.03
7.8995	81.99
7.9	81.97
7.9005	81.92
7.901	81.88
7.9015	81.88
7.902	81.83
7.9025	81.77
7.903	81.74
7.9035	81.70
7.904	81.70
7.9045	81.65
7.905	81.61
7.9055	81.59
7.906	81.50
7.9065	81.43
7.907	81.36
7.9075	81.32
7.908	81.25
7.9085	81.19
7.909	81.12
7.9095	81.05
7.91	80.99
7.9105	80.90
7.911	80.83
7.9115	80.76
7.912	80.70
7.9125	80.61
7.913	80.52
7.9135	80.43
7.914	80.34
7.9145	80.23
7.915	80.16
7.9155	80.07
7.916	79.98
7.9165	79.89
7.917	79.80
7.9175	79.69
7.918	79.60
7.9185	79.49
7.919	79.43
7.9195	79.31
7.92	79.22
7.9205	79.11
7.921	79.02
7.9215	78.93
7.922	78.82
7.9225	78.73
7.923	78.64
7.9235	78.53
7.924	78.47
7.9245	78.38
7.925	78.31
7.9255	78.22
7.926	78.13
7.9265	78.07
7.927	78.00
7.9275	77.95
7.928	77.86
7.9285	77.80
7.929	77.75
7.9295	77.71
7.93	77.66
7.9305	77.62
7.931	77.57
7.9315	77.55
7.932	77.53
7.9325	77.49
7.933	77.46
7.9335	77.44
7.934	77.40
7.9345	77.37
7.935	77.35
7.9355	77.35
7.936	77.33
7.9365	77.33
7.937	77.33
7.9375	77.31
7.938	77.31
7.9385	77.31
7.939	77.31
7.9395	77.31
7.94	77.31
7.9405	77.33
7.941	77.33
7.9415	77.35
7.942	77.35
7.9425	77.37
7.943	77.35
7.9435	77.33
7.944	77.37
7.9445	77.37
7.945	77.40
7.9455	77.42
7.946	77.42
7.9465	77.42
7.947	77.42
7.9475	77.42
7.948	77.44
7.9485	77.44
7.949	77.44
7.9495	77.44
7.95	77.46
7.9505	77.49
7.951	77.49
7.9515	77.51
7.952	77.53
7.9525	77.57
7.953	77.62
7.9535	77.62
7.954	77.64
7.9545	77.69
7.955	77.73
7.9555	77.75
7.956	77.80
7.9565	77.82
7.957	77.86
7.9575	77.91
7.958	77.95
7.9585	78.00
7.959	78.04
7.9595	78.07
7.96	78.11
7.9605	78.15
7.961	78.20
7.9615	78.27
7.962	78.27
7.9625	78.33
7.963	78.33
7.9635	78.36
7.964	78.42
7.9645	78.44
7.965	78.49
7.9655	78.53
7.966	78.56
7.9665	78.60
7.967	78.62
7.9675	78.64
7.968	78.67
7.9685	78.69
7.969	78.71
7.9695	78.76
7.97	78.78
7.9705	78.80
7.971	78.80
7.9715	78.85
7.972	78.87
7.9725	78.87
7.973	78.91
7.9735	78.91
7.974	78.91
7.9745	78.96
7.975	78.98
7.9755	78.98
7.976	79.02
7.9765	79.05
7.977	79.07
7.9775	79.07
7.978	79.09
7.9785	79.11
7.979	79.14
7.9795	79.16
7.98	79.18
7.9805	79.18
7.981	79.22
7.9815	79.25
7.982	79.25
7.9825	79.27
7.983	79.25
7.9835	79.27
7.984	79.29
7.9845	79.29
7.985	79.31
7.9855	79.31
7.986	79.31
7.9865	79.31
7.987	79.29
7.9875	79.29
7.988	79.29
7.9885	79.25
7.989	79.25
7.9895	79.25
7.99	79.22
7.9905	79.20
7.991	79.18
7.9915	79.16
7.992	79.14
7.9925	79.11
7.993	79.09
7.9935	79.02
7.994	78.98
7.9945	78.96
7.995	78.91
7.9955	78.89
7.996	78.85
7.9965	78.82
7.997	78.80
7.9975	78.76
7.998	78.71
7.9985	78.67
7.999	78.62
7.9995	78.60
8	78.56
8.0005	78.49
8.001	78.47
8.0015	78.42
8.002	78.38
8.0025	78.33
8.003	78.27
8.0035	78.22
8.004	78.18
8.0045	78.13
8.005	78.11
8.0055	78.07
8.006	78.02
8.0065	77.98
8.007	77.91
8.0075	77.86
8.008	77.82
8.0085	77.78
8.009	77.75
8.0095	77.71
8.01	77.69
8.0105	77.64
8.011	77.62
8.0115	77.60
8.012	77.57
8.0125	77.55
8.013	77.53
8.0135	77.49
8.014	77.46
8.0145	77.44
8.015	77.44
8.0155	77.46
8.016	77.44
8.0165	77.44
8.017	77.46
8.0175	77.49
8.018	77.46
8.0185	77.49
8.019	77.51
8.0195	77.53
8.02	77.53
8.0205	77.55
8.021	77.57
8.0215	77.62
8.022	77.66
8.0225	77.69
8.023	77.73
8.0235	77.73
8.024	77.75
8.0245	77.80
8.025	77.84
8.0255	77.89
8.026	77.91
8.0265	77.93
8.027	77.98
8.0275	78.00
8.028	78.02
8.0285	78.07
8.029	78.07
8.0295	78.11
8.03	78.13
8.0305	78.15
8.031	78.20
8.0315	78.22
8.032	78.22
8.0325	78.24
8.033	78.27
8.0335	78.27
8.034	78.27
8.0345	78.27
8.035	78.27
8.0355	78.29
8.036	78.31
8.0365	78.31
8.037	78.33
8.0375	78.33
8.038	78.36
8.0385	78.36
8.039	78.38
8.0395	78.40
8.04	78.42
8.0405	78.42
8.041	78.42
8.0415	78.44
8.042	78.44
8.0425	78.47
8.043	78.49
8.0435	78.47
8.044	78.49
8.0445	78.51
8.045	78.53
8.0455	78.56
8.046	78.56
8.0465	78.56
8.047	78.56
8.0475	78.58
8.048	78.58
8.0485	78.58
8.049	78.60
8.0495	78.60
8.05	78.60
8.0505	78.62
8.051	78.62
8.0515	78.62
8.052	78.62
8.0525	78.64
8.053	78.67
8.0535	78.64
8.054	78.64
8.0545	78.62
8.055	78.64
8.0555	78.67
8.056	78.67
8.0565	78.67
8.057	78.67
8.0575	78.67
8.058	78.67
8.0585	78.69
8.059	78.69
8.0595	78.69
8.06	78.69
8.0605	78.71
8.061	78.71
8.0615	78.71
8.062	78.73
8.0625	78.73
8.063	78.73
8.0635	78.76
8.064	78.69
8.0645	78.69
8.065	78.71
8.0655	78.69
8.066	78.69
8.0665	78.69
8.067	78.67
8.0675	78.64
8.068	78.62
8.0685	78.60
8.069	78.58
8.0695	78.56
8.07	78.53
8.0705	78.51
8.071	78.47
8.0715	78.44
8.072	78.44
8.0725	78.40
8.073	78.36
8.0735	78.33
8.074	78.29
8.0745	78.22
8.075	78.18
8.0755	78.15
8.076	78.11
8.0765	78.07
8.077	78.00
8.0775	77.93
8.078	77.91
8.0785	77.86
8.079	77.82
8.0795	77.78
8.08	77.73
8.0805	77.69
8.081	77.64
8.0815	77.60
8.082	77.57
8.0825	77.51
8.083	77.46
8.0835	77.42
8.084	77.33
8.0845	77.31
8.085	77.26
8.0855	77.22
8.086	77.17
8.0865	77.11
8.087	77.06
8.0875	77.02
8.088	76.97
8.0885	76.93
8.089	76.88
8.0895	76.82
8.09	76.77
8.0905	76.73
8.091	76.68
8.0915	76.64
8.092	76.59
8.0925	76.53
8.093	76.46
8.0935	76.42
8.094	76.37
8.0945	76.30
8.095	76.24
8.0955	76.19
8.096	76.15
8.0965	76.10
8.097	76.06
8.0975	76.01
8.098	75.97
8.0985	75.93
8.099	75.88
8.0995	75.84
8.1	75.81
8.1005	75.77
8.101	75.72
8.1015	75.68
8.102	75.66
8.1025	75.66
8.103	75.64
8.1035	75.59
8.104	75.57
8.1045	75.52
8.105	75.50
8.1055	75.48
8.106	75.46
8.1065	75.46
8.107	75.41
8.1075	75.39
8.108	75.35
8.1085	75.32
8.109	75.30
8.1095	75.28
8.11	75.26
8.1105	75.21
8.111	75.21
8.1115	75.19
8.112	75.17
8.1125	75.17
8.113	75.12
8.1135	75.10
8.114	75.08
8.1145	75.03
8.115	75.01
8.1155	74.99
8.116	74.99
8.1165	74.97
8.117	74.97
8.1175	74.94
8.118	74.94
8.1185	74.94
8.119	74.94
8.1195	74.94
8.12	74.92
8.1205	74.94
8.121	74.94
8.1215	74.92
8.122	74.94
8.1225	74.99
8.123	74.99
8.1235	74.99
8.124	75.01
8.1245	74.99
8.125	75.03
8.1255	75.06
8.126	75.08
8.1265	75.12
8.127	75.12
8.1275	75.19
8.128	75.21
8.1285	75.23
8.129	75.26
8.1295	75.28
8.13	75.30
8.1305	75.30
8.131	75.37
8.1315	75.39
8.132	75.41
8.1325	75.46
8.133	75.46
8.1335	75.48
8.134	75.52
8.1345	75.55
8.135	75.57
8.1355	75.61
8.136	75.64
8.1365	75.68
8.137	75.70
8.1375	75.75
8.138	75.77
8.1385	75.81
8.139	75.88
8.1395	75.90
8.14	75.95
8.1405	75.97
8.141	75.99
8.1415	76.04
8.142	76.08
8.1425	76.13
8.143	76.17
8.1435	76.21
8.144	76.24
8.1445	76.28
8.145	76.28
8.1455	76.33
8.146	76.39
8.1465	76.44
8.147	76.48
8.1475	76.50
8.148	76.55
8.1485	76.57
8.149	76.62
8.1495	76.66
8.15	76.68
8.1505	76.73
8.151	76.75
8.1515	76.79
8.152	76.84
8.1525	76.86
8.153	76.91
8.1535	76.93
8.154	76.93
8.1545	76.97
8.155	77.02
8.1555	77.02
8.156	77.04
8.1565	77.08
8.157	77.11
8.1575	77.13
8.158	77.17
8.1585	77.17
8.159	77.20
8.1595	77.22
8.16	77.26
8.1605	77.28
8.161	77.31
8.1615	77.31
8.162	77.33
8.1625	77.35
8.163	77.40
8.1635	77.42
8.164	77.40
8.1645	77.42
8.165	77.40
8.1655	77.44
8.166	77.46
8.1665	77.46
8.167	77.49
8.1675	77.49
8.168	77.49
8.1685	77.49
8.169	77.49
8.1695	77.49
8.17	77.46
8.1705	77.46
8.171	77.46
8.1715	77.44
8.172	77.44
8.1725	77.42
8.173	77.40
8.1735	77.35
8.174	77.35
8.1745	77.33
8.175	77.31
8.1755	77.26
8.176	77.24
8.1765	77.24
8.177	77.22
8.1775	77.20
8.178	77.17
8.1785	77.13
8.179	77.13
8.1795	77.11
8.18	77.08
8.1805	77.08
8.181	77.06
8.1815	77.06
8.182	77.02
8.1825	77.04
8.183	77.06
8.1835	77.04
8.184	77.02
8.1845	76.97
8.185	76.97
8.1855	76.97
8.186	76.97
8.1865	76.97
8.187	76.95
8.1875	76.95
8.188	76.95
8.1885	76.93
8.189	76.91
8.1895	76.88
8.19	76.91
8.1905	76.91
8.191	76.91
8.1915	76.91
8.192	76.88
8.1925	76.86
8.193	76.86
8.1935	76.82
8.194	76.82
8.1945	76.79
8.195	76.75
8.1955	76.73
8.196	76.73
8.1965	76.71
8.197	76.68
8.1975	76.66
8.198	76.66
8.1985	76.64
8.199	76.59
8.1995	76.59
8.2	76.57
8.2005	76.53
8.201	76.50
8.2015	76.48
8.202	76.46
8.2025	76.46
8.203	76.44
8.2035	76.44
8.204	76.42
8.2045	76.35
8.205	76.35
8.2055	76.33
8.206	76.30
8.2065	76.33
8.207	76.30
8.2075	76.28
8.208	76.26
8.2085	76.24
8.209	76.19
8.2095	76.19
8.21	76.17
8.2105	76.15
8.211	76.13
8.2115	76.13
8.212	76.10
8.2125	76.08
8.213	76.06
8.2135	76.04
8.214	76.04
8.2145	76.01
8.215	75.97
8.2155	75.95
8.216	75.97
8.2165	75.95
8.217	75.95
8.2175	75.95
8.218	75.93
8.2185	75.93
8.219	75.93
8.2195	75.93
8.22	75.93
8.2205	75.90
8.221	75.88
8.2215	75.88
8.222	75.88
8.2225	75.88
8.223	75.93
8.2235	75.93
8.224	75.90
8.2245	75.90
8.225	75.86
8.2255	75.90
8.226	75.93
8.2265	75.90
8.227	75.95
8.2275	75.95
8.228	75.95
8.2285	75.95
8.229	75.95
8.2295	75.95
8.23	75.93
8.2305	75.95
8.231	75.93
8.2315	75.93
8.232	75.95
8.2325	75.97
8.233	75.95
8.2335	75.93
8.234	75.90
8.2345	75.93
8.235	75.90
8.2355	75.86
8.236	75.84
8.2365	75.84
8.237	75.81
8.2375	75.79
8.238	75.79
8.2385	75.77
8.239	75.75
8.2395	75.72
8.24	75.70
8.2405	75.70
8.241	75.66
8.2415	75.64
8.242	75.61
8.2425	75.59
8.243	75.59
8.2435	75.52
8.244	75.50
8.2445	75.46
8.245	75.41
8.2455	75.43
8.246	75.41
8.2465	75.39
8.247	75.37
8.2475	75.35
8.248	75.30
8.2485	75.28
8.249	75.23
8.2495	75.21
8.25	75.19
8.2505	75.14
8.251	75.12
8.2515	75.10
8.252	75.06
8.2525	75.06
8.253	75.01
8.2535	74.97
8.254	74.94
8.2545	74.92
8.255	74.88
8.2555	74.83
8.256	74.81
8.2565	74.79
8.257	74.79
8.2575	74.77
8.258	74.74
8.2585	74.72
8.259	74.70
8.2595	74.70
8.26	74.70
8.2605	74.68
8.261	74.68
8.2615	74.68
8.262	74.65
8.2625	74.65
8.263	74.68
8.2635	74.70
8.264	74.68
8.2645	74.68
8.265	74.65
8.2655	74.65
8.266	74.68
8.2665	74.68
8.267	74.70
8.2675	74.72
8.268	74.72
8.2685	74.72
8.269	74.70
8.2695	74.72
8.27	74.74
8.2705	74.74
8.271	74.79
8.2715	74.79
8.272	74.79
8.2725	74.81
8.273	74.83
8.2735	74.81
8.274	74.83
8.2745	74.85
8.275	74.83
8.2755	74.85
8.276	74.88
8.2765	74.88
8.277	74.90
8.2775	74.92
8.278	74.94
8.2785	74.99
8.279	74.99
8.2795	75.01
8.28	75.03
8.2805	75.06
8.281	75.08
8.2815	75.10
8.282	75.12
8.2825	75.12
8.283	75.17
8.2835	75.17
8.284	75.17
8.2845	75.19
8.285	75.17
8.2855	75.19
8.286	75.23
8.2865	75.23
8.287	75.26
8.2875	75.26
8.288	75.26
8.2885	75.23
8.289	75.23
8.2895	75.23
8.29	75.21
8.2905	75.23
8.291	75.23
8.2915	75.21
8.292	75.23
8.2925	75.23
8.293	75.21
8.2935	75.14
8.294	75.12
8.2945	75.12
8.295	75.10
8.2955	75.06
8.296	75.01
8.2965	74.99
8.297	74.97
8.2975	74.97
8.298	74.92
8.2985	74.90
8.299	74.88
8.2995	74.85
8.3	74.83
8.3005	74.79
8.301	74.79
8.3015	74.74
8.302	74.72
8.3025	74.70
8.303	74.68
8.3035	74.68
8.304	74.65
8.3045	74.61
8.305	74.59
8.3055	74.52
8.306	74.52
8.3065	74.50
8.307	74.48
8.3075	74.48
8.308	74.45
8.3085	74.41
8.309	74.39
8.3095	74.36
8.31	74.32
8.3105	74.32
8.311	74.28
8.3115	74.23
8.312	74.21
8.3125	74.19
8.313	74.19
8.3135	74.14
8.314	74.05
8.3145	74.03
8.315	74.01
8.3155	73.94
8.316	73.87
8.3165	73.83
8.317	73.78
8.3175	73.76
8.318	73.70
8.3185	73.65
8.319	73.61
8.3195	73.54
8.32	73.49
8.3205	73.45
8.321	73.41
8.3215	73.34
8.322	73.27
8.3225	73.23
8.323	73.18
8.3235	73.12
8.324	73.05
8.3245	72.98
8.325	72.89
8.3255	72.87
8.326	72.83
8.3265	72.76
8.327	72.71
8.3275	72.65
8.328	72.60
8.3285	72.54
8.329	72.47
8.3295	72.40
8.33	72.34
8.3305	72.29
8.331	72.25
8.3315	72.20
8.332	72.14
8.3325	72.05
8.333	72.00
8.3335	71.91
8.334	71.82
8.3345	71.78
8.335	71.71
8.3355	71.62
8.336	71.58
8.3365	71.51
8.337	71.44
8.3375	71.40
8.338	71.33
8.3385	71.29
8.339	71.24
8.3395	71.18
8.34	71.15
8.3405	71.11
8.341	71.09
8.3415	71.06
8.342	71.02
8.3425	71.00
8.343	70.98
8.3435	70.93
8.344	70.93
8.3445	70.89
8.345	70.86
8.3455	70.91
8.346	70.91
8.3465	70.93
8.347	70.95
8.3475	70.95
8.348	70.98
8.3485	70.98
8.349	70.98
8.3495	71.00
8.35	71.04
8.3505	71.04
8.351	71.06
8.3515	71.09
8.352	71.11
8.3525	71.13
8.353	71.15
8.3535	71.18
8.354	71.20
8.3545	71.22
8.355	71.24
8.3555	71.27
8.356	71.33
8.3565	71.35
8.357	71.40
8.3575	71.44
8.358	71.49
8.3585	71.56
8.359	71.60
8.3595	71.67
8.36	71.73
8.3605	71.78
8.361	71.85
8.3615	71.91
8.362	72.00
8.3625	72.07
8.363	72.09
8.3635	72.14
8.364	72.20
8.3645	72.27
8.365	72.36
8.3655	72.40
8.366	72.49
8.3665	72.56
8.367	72.60
8.3675	72.69
8.368	72.76
8.3685	72.83
8.369	72.87
8.3695	72.92
8.37	72.96
8.3705	73.00
8.371	73.05
8.3715	73.09
8.372	73.14
8.3725	73.21
8.373	73.23
8.3735	73.25
8.374	73.29
8.3745	73.32
8.375	73.34
8.3755	73.36
8.376	73.38
8.3765	73.41
8.377	73.43
8.3775	73.45
8.378	73.49
8.3785	73.49
8.379	73.52
8.3795	73.54
8.38	73.54
8.3805	73.56
8.381	73.58
8.3815	73.58
8.382	73.61
8.3825	73.61
8.383	73.61
8.3835	73.58
8.384	73.58
8.3845	73.61
8.385	73.58
8.3855	73.61
8.386	73.63
8.3865	73.65
8.387	73.65
8.3875	73.65
8.388	73.65
8.3885	73.63
8.389	73.63
8.3895	73.65
8.39	73.65
8.3905	73.65
8.391	73.65
8.3915	73.65
8.392	73.63
8.3925	73.63
8.393	73.63
8.3935	73.61
8.394	73.58
8.3945	73.58
8.395	73.56
8.3955	73.54
8.396	73.52
8.3965	73.47
8.397	73.47
8.3975	73.45
8.398	73.43
8.3985	73.38
8.399	73.36
8.3995	73.34
8.4	73.29
8.4005	73.27
8.401	73.25
8.4015	73.21
8.402	73.16
8.4025	73.12
8.403	73.09
8.4035	73.07
8.404	73.00
8.4045	72.94
8.405	72.89
8.4055	72.85
8.406	72.83
8.4065	72.78
8.407	72.74
8.4075	72.69
8.408	72.63
8.4085	72.58
8.409	72.51
8.4095	72.45
8.41	72.38
8.4105	72.31
8.411	72.27
8.4115	72.20
8.412	72.14
8.4125	72.05
8.413	72.00
8.4135	71.93
8.414	71.85
8.4145	71.80
8.415	71.71
8.4155	71.62
8.416	71.58
8.4165	71.49
8.417	71.42
8.4175	71.35
8.418	71.29
8.4185	71.24
8.419	71.15
8.4195	71.11
8.42	71.06
8.4205	71.00
8.421	70.93
8.4215	70.89
8.422	70.82
8.4225	70.78
8.423	70.75
8.4235	70.73
8.424	70.66
8.4245	70.60
8.425	70.57
8.4255	70.53
8.426	70.51
8.4265	70.51
8.427	70.49
8.4275	70.49
8.428	70.46
8.4285	70.44
8.429	70.44
8.4295	70.42
8.43	70.44
8.4305	70.44
8.431	70.42
8.4315	70.42
8.432	70.44
8.4325	70.44
8.433	70.44
8.4335	70.44
8.434	70.46
8.4345	70.46
8.435	70.46
8.4355	70.49
8.436	70.44
8.4365	70.49
8.437	70.51
8.4375	70.51
8.438	70.53
8.4385	70.55
8.439	70.55
8.4395	70.57
8.44	70.60
8.4405	70.62
8.441	70.62
8.4415	70.64
8.442	70.69
8.4425	70.71
8.443	70.71
8.4435	70.71
8.444	70.71
8.4445	70.73
8.445	70.75
8.4455	70.75
8.446	70.82
8.4465	70.84
8.447	70.86
8.4475	70.89
8.448	70.93
8.4485	70.95
8.449	70.98
8.4495	71.02
8.45	71.04
8.4505	71.06
8.451	71.09
8.4515	71.13
8.452	71.18
8.4525	71.20
8.453	71.24
8.4535	71.29
8.454	71.31
8.4545	71.35
8.455	71.40
8.4555	71.42
8.456	71.42
8.4565	71.47
8.457	71.49
8.4575	71.53
8.458	71.58
8.4585	71.62
8.459	71.64
8.4595	71.69
8.46	71.71
8.4605	71.78
8.461	71.80
8.4615	71.85
8.462	71.89
8.4625	71.91
8.463	71.93
8.4635	71.96
8.464	71.98
8.4645	72.02
8.465	72.05
8.4655	72.11
8.466	72.16
8.4665	72.20
8.467	72.22
8.4675	72.27
8.468	72.31
8.4685	72.34
8.469	72.40
8.4695	72.45
8.47	72.47
8.4705	72.49
8.471	72.54
8.4715	72.56
8.472	72.58
8.4725	72.60
8.473	72.63
8.4735	72.65
8.474	72.67
8.4745	72.69
8.475	72.71
8.4755	72.71
8.476	72.71
8.4765	72.74
8.477	72.74
8.4775	72.76
8.478	72.78
8.4785	72.80
8.479	72.78
8.4795	72.80
8.48	72.80
8.4805	72.78
8.481	72.78
8.4815	72.76
8.482	72.74
8.4825	72.69
8.483	72.69
8.4835	72.65
8.484	72.65
8.4845	72.60
8.485	72.58
8.4855	72.58
8.486	72.54
8.4865	72.51
8.487	72.49
8.4875	72.45
8.488	72.42
8.4885	72.40
8.489	72.36
8.4895	72.31
8.49	72.27
8.4905	72.20
8.491	72.16
8.4915	72.14
8.492	72.05
8.4925	72.02
8.493	71.98
8.4935	71.89
8.494	71.85
8.4945	71.78
8.495	71.69
8.4955	71.62
8.496	71.56
8.4965	71.49
8.497	71.42
8.4975	71.35
8.498	71.29
8.4985	71.22
8.499	71.15
8.4995	71.09
8.5	71.00
8.5005	70.93
8.501	70.86
8.5015	70.78
8.502	70.69
8.5025	70.62
8.503	70.51
8.5035	70.44
8.504	70.35
8.5045	70.28
8.505	70.22
8.5055	70.13
8.506	70.06
8.5065	69.99
8.507	69.91
8.5075	69.82
8.508	69.77
8.5085	69.71
8.509	69.62
8.5095	69.53
8.51	69.46
8.5105	69.37
8.511	69.30
8.5115	69.21
8.512	69.15
8.5125	69.06
8.513	68.97
8.5135	68.90
8.514	68.81
8.5145	68.72
8.515	68.63
8.5155	68.57
8.516	68.50
8.5165	68.46
8.517	68.39
8.5175	68.32
8.518	68.28
8.5185	68.21
8.519	68.17
8.5195	68.10
8.52	68.06
8.5205	68.03
8.521	67.99
8.5215	67.94
8.522	67.90
8.5225	67.85
8.523	67.83
8.5235	67.79
8.524	67.74
8.5245	67.72
8.525	67.72
8.5255	67.72
8.526	67.70
8.5265	67.70
8.527	67.68
8.5275	67.68
8.528	67.70
8.5285	67.70
8.529	67.70
8.5295	67.72
8.53	67.70
8.5305	67.70
8.531	67.74
8.5315	67.74
8.532	67.72
8.5325	67.77
8.533	67.77
8.5335	67.74
8.534	67.77
8.5345	67.79
8.535	67.79
8.5355	67.79
8.536	67.83
8.5365	67.85
8.537	67.90
8.5375	67.92
8.538	67.92
8.5385	67.94
8.539	67.99
8.5395	68.01
8.54	68.03
8.5405	68.08
8.541	68.12
8.5415	68.14
8.542	68.17
8.5425	68.19
8.543	68.19
8.5435	68.21
8.544	68.26
8.5445	68.28
8.545	68.32
8.5455	68.37
8.546	68.41
8.5465	68.48
8.547	68.50
8.5475	68.55
8.548	68.57
8.5485	68.61
8.549	68.63
8.5495	68.70
8.55	68.72
8.5505	68.77
8.551	68.81
8.5515	68.84
8.552	68.88
8.5525	68.90
8.553	68.90
8.5535	68.97
8.554	68.99
8.5545	69.01
8.555	69.06
8.5555	69.10
8.556	69.13
8.5565	69.19
8.557	69.24
8.5575	69.26
8.558	69.30
8.5585	69.35
8.559	69.37
8.5595	69.42
8.56	69.46
8.5605	69.53
8.561	69.55
8.5615	69.57
8.562	69.59
8.5625	69.59
8.563	69.62
8.5635	69.64
8.564	69.66
8.5645	69.73
8.565	69.75
8.5655	69.77
8.566	69.82
8.5665	69.84
8.567	69.84
8.5675	69.86
8.568	69.88
8.5685	69.91
8.569	69.93
8.5695	69.93
8.57	69.91
8.5705	69.93
8.571	69.93
8.5715	69.95
8.572	69.93
8.5725	69.86
8.573	69.86
8.5735	69.86
8.574	69.84
8.5745	69.79
8.575	69.77
8.5755	69.77
8.576	69.75
8.5765	69.73
8.577	69.68
8.5775	69.66
8.578	69.64
8.5785	69.59
8.579	69.55
8.5795	69.53
8.58	69.48
8.5805	69.44
8.581	69.39
8.5815	69.35
8.582	69.28
8.5825	69.21
8.583	69.19
8.5835	69.10
8.584	69.08
8.5845	69.04
8.585	68.99
8.5855	68.95
8.586	68.88
8.5865	68.86
8.587	68.81
8.5875	68.77
8.588	68.70
8.5885	68.63
8.589	68.59
8.5895	68.55
8.59	68.50
8.5905	68.46
8.591	68.41
8.5915	68.37
8.592	68.28
8.5925	68.23
8.593	68.21
8.5935	68.14
8.594	68.10
8.5945	68.08
8.595	68.06
8.5955	68.01
8.596	67.97
8.5965	67.97
8.597	67.94
8.5975	67.92
8.598	67.92
8.5985	67.92
8.599	67.92
8.5995	67.90
8.6	67.90
8.6005	67.90
8.601	67.90
8.6015	67.90
8.602	67.88
8.6025	67.90
8.603	67.90
8.6035	67.90
8.604	67.94
8.6045	67.97
8.605	68.01
8.6055	68.03
8.606	68.06
8.6065	68.06
8.607	68.08
8.6075	68.10
8.608	68.14
8.6085	68.19
8.609	68.21
8.6095	68.23
8.61	68.26
8.6105	68.28
8.611	68.32
8.6115	68.32
8.612	68.32
8.6125	68.37
8.613	68.41
8.6135	68.43
8.614	68.46
8.6145	68.48
8.615	68.52
8.6155	68.57
8.616	68.61
8.6165	68.66
8.617	68.70
8.6175	68.77
8.618	68.81
8.6185	68.86
8.619	68.90
8.6195	68.92
8.62	68.97
8.6205	68.99
8.621	69.04
8.6215	69.08
8.622	69.10
8.6225	69.15
8.623	69.15
8.6235	69.24
8.624	69.28
8.6245	69.33
8.625	69.37
8.6255	69.42
8.626	69.46
8.6265	69.50
8.627	69.55
8.6275	69.59
8.628	69.64
8.6285	69.71
8.629	69.73
8.6295	69.77
8.63	69.82
8.6305	69.86
8.631	69.91
8.6315	69.93
8.632	69.97
8.6325	70.02
8.633	70.06
8.6335	70.11
8.634	70.15
8.6345	70.22
8.635	70.26
8.6355	70.33
8.636	70.37
8.6365	70.42
8.637	70.49
8.6375	70.55
8.638	70.60
8.6385	70.66
8.639	70.73
8.6395	70.82
8.64	70.86
8.6405	70.89
8.641	70.95
8.6415	71.00
8.642	71.06
8.6425	71.11
8.643	71.20
8.6435	71.29
8.644	71.35
8.6445	71.42
8.645	71.47
8.6455	71.53
8.646	71.58
8.6465	71.62
8.647	71.69
8.6475	71.73
8.648	71.78
8.6485	71.82
8.649	71.87
8.6495	71.91
8.65	71.93
8.6505	72.00
8.651	71.98
8.6515	72.00
8.652	72.05
8.6525	72.07
8.653	72.09
8.6535	72.09
8.654	72.11
8.6545	72.14
8.655	72.16
8.6555	72.18
8.656	72.20
8.6565	72.20
8.657	72.20
8.6575	72.22
8.658	72.22
8.6585	72.22
8.659	72.22
8.6595	72.22
8.66	72.20
8.6605	72.20
8.661	72.16
8.6615	72.16
8.662	72.11
8.6625	72.09
8.663	72.16
8.6635	72.16
8.664	72.14
8.6645	72.11
8.665	72.11
8.6655	72.09
8.666	72.09
8.6665	72.07
8.667	72.07
8.6675	72.07
8.668	72.05
8.6685	72.02
8.669	72.00
8.6695	71.98
8.67	71.98
8.6705	71.93
8.671	71.89
8.6715	71.91
8.672	71.87
8.6725	71.82
8.673	71.82
8.6735	71.80
8.674	71.76
8.6745	71.76
8.675	71.73
8.6755	71.71
8.676	71.69
8.6765	71.67
8.677	71.67
8.6775	71.67
8.678	71.64
8.6785	71.62
8.679	71.62
8.6795	71.60
8.68	71.58
8.6805	71.56
8.681	71.53
8.6815	71.53
8.682	71.49
8.6825	71.53
8.683	71.56
8.6835	71.58
8.684	71.60
8.6845	71.58
8.685	71.60
8.6855	71.60
8.686	71.60
8.6865	71.62
8.687	71.64
8.6875	71.64
8.688	71.67
8.6885	71.67
8.689	71.69
8.6895	71.71
8.69	71.71
8.6905	71.71
8.691	71.71
8.6915	71.76
8.692	71.78
8.6925	71.80
8.693	71.80
8.6935	71.82
8.694	71.87
8.6945	71.89
8.695	71.93
8.6955	71.96
8.696	72.00
8.6965	72.05
8.697	72.09
8.6975	72.14
8.698	72.18
8.6985	72.22
8.699	72.27
8.6995	72.31
8.7	72.34
8.7005	72.38
8.701	72.42
8.7015	72.42
8.702	72.47
8.7025	72.58
8.703	72.63
8.7035	72.67
8.704	72.74
8.7045	72.76
8.705	72.80
8.7055	72.87
8.706	72.92
8.7065	72.96
8.707	72.98
8.7075	73.03
8.708	73.07
8.7085	73.12
8.709	73.14
8.7095	73.18
8.71	73.23
8.7105	73.25
8.711	73.29
8.7115	73.34
8.712	73.38
8.7125	73.41
8.713	73.45
8.7135	73.49
8.714	73.54
8.7145	73.58
8.715	73.65
8.7155	73.70
8.716	73.74
8.7165	73.81
8.717	73.85
8.7175	73.92
8.718	73.96
8.7185	74.03
8.719	74.07
8.7195	74.12
8.72	74.16
8.7205	74.19
8.721	74.28
8.7215	74.32
8.722	74.36
8.7225	74.48
8.723	74.54
8.7235	74.61
8.724	74.68
8.7245	74.72
8.725	74.77
8.7255	74.81
8.726	74.85
8.7265	74.88
8.727	74.94
8.7275	74.97
8.728	74.99
8.7285	75.03
8.729	75.06
8.7295	75.10
8.73	75.10
8.7305	75.12
8.731	75.17
8.7315	75.17
8.732	75.19
8.7325	75.21
8.733	75.21
8.7335	75.23
8.734	75.26
8.7345	75.26
8.735	75.28
8.7355	75.28
8.736	75.28
8.7365	75.30
8.737	75.28
8.7375	75.28
8.738	75.28
8.7385	75.28
8.739	75.23
8.7395	75.21
8.74	75.17
8.7405	75.14
8.741	75.12
8.7415	75.10
8.742	75.12
8.7425	75.14
8.743	75.14
8.7435	75.12
8.744	75.08
8.7445	75.03
8.745	75.01
8.7455	74.97
8.746	74.94
8.7465	74.90
8.747	74.83
8.7475	74.81
8.748	74.77
8.7485	74.70
8.749	74.65
8.7495	74.61
8.75	74.54
8.7505	74.48
8.751	74.41
8.7515	74.36
8.752	74.30
8.7525	74.23
8.753	74.19
8.7535	74.10
8.754	74.05
8.7545	74.01
8.755	73.94
8.7555	73.90
8.756	73.83
8.7565	73.76
8.757	73.70
8.7575	73.65
8.758	73.61
8.7585	73.54
8.759	73.49
8.7595	73.43
8.76	73.38
8.7605	73.32
8.761	73.27
8.7615	73.23
8.762	73.18
8.7625	73.18
8.763	73.16
8.7635	73.16
8.764	73.14
8.7645	73.07
8.765	73.05
8.7655	73.03
8.766	73.00
8.7665	72.98
8.767	72.94
8.7675	72.92
8.768	72.94
8.7685	72.92
8.769	72.92
8.7695	72.89
8.77	72.89
8.7705	72.87
8.771	72.87
8.7715	72.89
8.772	72.89
8.7725	72.89
8.773	72.89
8.7735	72.94
8.774	72.96
8.7745	72.98
8.775	73.03
8.7755	73.05
8.776	73.09
8.7765	73.14
8.777	73.16
8.7775	73.21
8.778	73.23
8.7785	73.27
8.779	73.29
8.7795	73.32
8.78	73.36
8.7805	73.36
8.781	73.38
8.7815	73.38
8.782	73.43
8.7825	73.52
8.783	73.54
8.7835	73.61
8.784	73.63
8.7845	73.65
8.785	73.70
8.7855	73.72
8.786	73.74
8.7865	73.76
8.787	73.78
8.7875	73.81
8.788	73.87
8.7885	73.90
8.789	73.92
8.7895	73.96
8.79	73.99
8.7905	73.99
8.791	74.01
8.7915	74.05
8.792	74.07
8.7925	74.12
8.793	74.14
8.7935	74.16
8.794	74.19
8.7945	74.23
8.795	74.25
8.7955	74.30
8.796	74.32
8.7965	74.34
8.797	74.39
8.7975	74.41
8.798	74.43
8.7985	74.45
8.799	74.48
8.7995	74.50
8.8	74.50
8.8005	74.52
8.801	74.52
8.8015	74.52
8.802	74.54
8.8025	74.54
8.803	74.63
8.8035	74.65
8.804	74.70
8.8045	74.74
8.805	74.77
8.8055	74.79
8.806	74.79
8.8065	74.81
8.807	74.81
8.8075	74.83
8.808	74.85
8.8085	74.85
8.809	74.85
8.8095	74.88
8.81	74.88
8.8105	74.88
8.811	74.88
8.8115	74.90
8.812	74.90
8.8125	74.90
8.813	74.90
8.8135	74.90
8.814	74.92
8.8145	74.92
8.815	74.92
8.8155	74.92
8.816	74.92
8.8165	74.92
8.817	74.90
8.8175	74.90
8.818	74.90
8.8185	74.90
8.819	74.88
8.8195	74.85
8.82	74.83
8.8205	74.81
8.821	74.77
8.8215	74.72
8.822	74.70
8.8225	74.68
8.823	74.70
8.8235	74.70
8.824	74.70
8.8245	74.65
8.825	74.63
8.8255	74.59
8.826	74.54
8.8265	74.52
8.827	74.48
8.8275	74.43
8.828	74.41
8.8285	74.34
8.829	74.30
8.8295	74.25
8.83	74.21
8.8305	74.16
8.831	74.10
8.8315	74.05
8.832	73.99
8.8325	73.94
8.833	73.87
8.8335	73.81
8.834	73.76
8.8345	73.70
8.835	73.65
8.8355	73.61
8.836	73.56
8.8365	73.49
8.837	73.45
8.8375	73.41
8.838	73.38
8.8385	73.34
8.839	73.29
8.8395	73.25
8.84	73.23
8.8405	73.18
8.841	73.14
8.8415	73.09
8.842	73.05
8.8425	73.05
8.843	73.00
8.8435	73.03
8.844	73.03
8.8445	73.05
8.845	73.07
8.8455	73.05
8.846	73.05
8.8465	73.05
8.847	73.07
8.8475	73.05
8.848	73.09
8.8485	73.12
8.849	73.14
8.8495	73.16
8.85	73.18
8.8505	73.18
8.851	73.21
8.8515	73.23
8.852	73.23
8.8525	73.27
8.853	73.27
8.8535	73.29
8.854	73.34
8.8545	73.36
8.855	73.41
8.8555	73.43
8.856	73.45
8.8565	73.47
8.857	73.52
8.8575	73.52
8.858	73.54
8.8585	73.56
8.859	73.61
8.8595	73.63
8.86	73.65
8.8605	73.63
8.861	73.65
8.8615	73.67
8.862	73.65
8.8625	73.67
8.863	73.65
8.8635	73.70
8.864	73.72
8.8645	73.76
8.865	73.78
8.8655	73.76
8.866	73.78
8.8665	73.78
8.867	73.76
8.8675	73.76
8.868	73.78
8.8685	73.76
8.869	73.78
8.8695	73.81
8.87	73.81
8.8705	73.78
8.871	73.78
8.8715	73.76
8.872	73.74
8.8725	73.74
8.873	73.72
8.8735	73.72
8.874	73.70
8.8745	73.67
8.875	73.65
8.8755	73.65
8.876	73.65
8.8765	73.63
8.877	73.61
8.8775	73.61
8.878	73.58
8.8785	73.58
8.879	73.56
8.8795	73.54
8.88	73.54
8.8805	73.49
8.881	73.47
8.8815	73.45
8.882	73.41
8.8825	73.38
8.883	73.34
8.8835	73.36
8.884	73.38
8.8845	73.38
8.885	73.38
8.8855	73.36
8.886	73.36
8.8865	73.34
8.887	73.32
8.8875	73.29
8.888	73.27
8.8885	73.25
8.889	73.23
8.8895	73.21
8.89	73.18
8.8905	73.16
8.891	73.14
8.8915	73.09
8.892	73.05
8.8925	73.00
8.893	72.98
8.8935	72.96
8.894	72.92
8.8945	72.87
8.895	72.85
8.8955	72.80
8.896	72.78
8.8965	72.74
8.897	72.69
8.8975	72.65
8.898	72.60
8.8985	72.56
8.899	72.51
8.8995	72.47
8.9	72.42
8.9005	72.36
8.901	72.31
8.9015	72.27
8.902	72.20
8.9025	72.16
8.903	72.07
8.9035	72.07
8.904	72.07
8.9045	72.02
8.905	72.00
8.9055	71.96
8.906	71.93
8.9065	71.89
8.907	71.85
8.9075	71.82
8.908	71.76
8.9085	71.73
8.909	71.69
8.9095	71.64
8.91	71.60
8.9105	71.58
8.911	71.56
8.9115	71.47
8.912	71.42
8.9125	71.40
8.913	71.35
8.9135	71.31
8.914	71.27
8.9145	71.22
8.915	71.20
8.9155	71.18
8.916	71.15
8.9165	71.13
8.917	71.09
8.9175	71.06
8.918	71.02
8.9185	71.00
8.919	70.98
8.9195	70.95
8.92	70.91
8.9205	70.89
8.921	70.86
8.9215	70.80
8.922	70.80
8.9225	70.78
8.923	70.71
8.9235	70.75
8.924	70.75
8.9245	70.75
8.925	70.78
8.9255	70.78
8.926	70.78
8.9265	70.75
8.927	70.75
8.9275	70.78
8.928	70.78
8.9285	70.78
8.929	70.78
8.9295	70.78
8.93	70.78
8.9305	70.80
8.931	70.80
8.9315	70.78
8.932	70.80
8.9325	70.82
8.933	70.80
8.9335	70.82
8.934	70.82
8.9345	70.84
8.935	70.86
8.9355	70.89
8.936	70.91
8.9365	70.93
8.937	70.95
8.9375	70.98
8.938	71.00
8.9385	71.02
8.939	71.02
8.9395	71.04
8.94	71.06
8.9405	71.06
8.941	71.06
8.9415	71.06
8.942	71.09
8.9425	71.06
8.943	71.06
8.9435	71.13
8.944	71.18
8.9445	71.20
8.945	71.22
8.9455	71.22
8.946	71.24
8.9465	71.27
8.947	71.27
8.9475	71.29
8.948	71.29
8.9485	71.31
8.949	71.33
8.9495	71.33
8.95	71.35
8.9505	71.35
8.951	71.35
8.9515	71.35
8.952	71.35
8.9525	71.35
8.953	71.35
8.9535	71.35
8.954	71.38
8.9545	71.38
8.955	71.40
8.9555	71.40
8.956	71.42
8.9565	71.44
8.957	71.44
8.9575	71.44
8.958	71.47
8.9585	71.49
8.959	71.51
8.9595	71.51
8.96	71.53
8.9605	71.56
8.961	71.56
8.9615	71.58
8.962	71.60
8.9625	71.58
8.963	71.67
8.9635	71.71
8.964	71.76
8.9645	71.80
8.965	71.85
8.9655	71.91
8.966	71.96
8.9665	72.00
8.967	72.02
8.9675	72.07
8.968	72.11
8.9685	72.16
8.969	72.18
8.9695	72.22
8.97	72.27
8.9705	72.31
8.971	72.34
8.9715	72.36
8.972	72.38
8.9725	72.42
8.973	72.45
8.9735	72.49
8.974	72.54
8.9745	72.54
8.975	72.58
8.9755	72.60
8.976	72.63
8.9765	72.67
8.977	72.69
8.9775	72.71
8.978	72.71
8.9785	72.74
8.979	72.76
8.9795	72.78
8.98	72.76
8.9805	72.80
8.981	72.78
8.9815	72.78
8.982	72.78
8.9825	72.74
8.983	72.80
8.9835	72.85
8.984	72.87
8.9845	72.89
8.985	72.89
8.9855	72.87
8.986	72.89
8.9865	72.87
8.987	72.85
8.9875	72.85
8.988	72.83
8.9885	72.83
8.989	72.80
8.9895	72.78
8.99	72.76
8.9905	72.76
8.991	72.71
8.9915	72.65
8.992	72.65
8.9925	72.63
8.993	72.58
8.9935	72.56
8.994	72.54
8.9945	72.49
8.995	72.45
8.9955	72.42
8.996	72.40
8.9965	72.36
8.997	72.34
8.9975	72.29
8.998	72.27
8.9985	72.22
8.999	72.20
8.9995	72.16
9	72.09
9.0005	72.07
9.001	72.00
9.0015	71.98
9.002	71.91
9.0025	71.85
9.003	71.87
9.0035	71.85
9.004	71.85
9.0045	71.80
9.005	71.76
9.0055	71.73
9.006	71.69
9.0065	71.64
9.007	71.62
9.0075	71.60
9.008	71.56
9.0085	71.53
9.009	71.49
9.0095	71.47
9.01	71.42
9.0105	71.35
9.011	71.31
9.0115	71.29
9.012	71.22
9.0125	71.18
9.013	71.13
9.0135	71.09
9.014	71.04
9.0145	71.00
9.015	70.95
9.0155	70.93
9.016	70.91
9.0165	70.89
9.017	70.82
9.0175	70.78
9.018	70.75
9.0185	70.73
9.019	70.69
9.0195	70.64
9.02	70.60
9.0205	70.57
9.021	70.53
9.0215	70.51
9.022	70.44
9.0225	70.40
9.023	70.42
9.0235	70.42
9.024	70.40
9.0245	70.40
9.025	70.37
9.0255	70.37
9.026	70.35
9.0265	70.35
9.027	70.33
9.0275	70.31
9.028	70.31
9.0285	70.28
9.029	70.28
9.0295	70.26
9.03	70.28
9.0305	70.26
9.031	70.22
9.0315	70.24
9.032	70.22
9.0325	70.20
9.033	70.22
9.0335	70.20
9.034	70.20
9.0345	70.20
9.035	70.20
9.0355	70.17
9.036	70.17
9.0365	70.20
9.037	70.20
9.0375	70.20
9.038	70.22
9.0385	70.22
9.039	70.22
9.0395	70.22
9.04	70.20
9.0405	70.20
9.041	70.22
9.0415	70.22
9.042	70.17
9.0425	70.20
9.043	70.24
9.0435	70.26
9.044	70.28
9.0445	70.31
9.045	70.31
9.0455	70.31
9.046	70.31
9.0465	70.31
9.047	70.33
9.0475	70.33
9.048	70.33
9.0485	70.35
9.049	70.35
9.0495	70.33
9.05	70.35
9.0505	70.35
9.051	70.35
9.0515	70.35
9.052	70.33
9.0525	70.33
9.053	70.35
9.0535	70.35
9.054	70.35
9.0545	70.37
9.055	70.37
9.0555	70.37
9.056	70.40
9.0565	70.40
9.057	70.42
9.0575	70.42
9.058	70.46
9.0585	70.44
9.059	70.46
9.0595	70.49
9.06	70.46
9.0605	70.46
9.061	70.46
9.0615	70.46
9.062	70.46
9.0625	70.42
9.063	70.44
9.0635	70.49
9.064	70.51
9.0645	70.55
9.065	70.53
9.0655	70.53
9.066	70.53
9.0665	70.53
9.067	70.53
9.0675	70.53
9.068	70.51
9.0685	70.51
9.069	70.53
9.0695	70.51
9.07	70.51
9.0705	70.51
9.071	70.46
9.0715	70.44
9.072	70.44
9.0725	70.42
9.073	70.37
9.0735	70.37
9.074	70.35
9.0745	70.33
9.075	70.31
9.0755	70.26
9.076	70.24
9.0765	70.22
9.077	70.20
9.0775	70.15
9.078	70.13
9.0785	70.08
9.079	70.06
9.0795	70.02
9.08	69.97
9.0805	69.93
9.081	69.86
9.0815	69.82
9.082	69.77
9.0825	69.66
9.083	69.62
9.0835	69.59
9.084	69.57
9.0845	69.55
9.085	69.50
9.0855	69.44
9.086	69.37
9.0865	69.33
9.087	69.26
9.0875	69.19
9.088	69.15
9.0885	69.08
9.089	69.04
9.0895	68.97
9.09	68.92
9.0905	68.88
9.091	68.79
9.0915	68.72
9.092	68.68
9.0925	68.61
9.093	68.57
9.0935	68.50
9.094	68.46
9.0945	68.41
9.095	68.37
9.0955	68.32
9.096	68.28
9.0965	68.23
9.097	68.19
9.0975	68.17
9.098	68.12
9.0985	68.10
9.099	68.06
9.0995	68.06
9.1	68.01
9.1005	67.99
9.101	67.94
9.1015	67.92
9.102	67.90
9.1025	67.83
9.103	67.83
9.1035	67.83
9.104	67.85
9.1045	67.85
9.105	67.85
9.1055	67.85
9.106	67.85
9.1065	67.88
9.107	67.90
9.1075	67.90
9.108	67.90
9.1085	67.92
9.109	67.94
9.1095	67.94
9.11	67.97
9.1105	67.99
9.111	67.99
9.1115	68.01
9.112	68.03
9.1125	68.06
9.113	68.08
9.1135	68.10
9.114	68.12
9.1145	68.14
9.115	68.19
9.1155	68.21
9.116	68.23
9.1165	68.26
9.117	68.30
9.1175	68.32
9.118	68.37
9.1185	68.41
9.119	68.46
9.1195	68.46
9.12	68.48
9.1205	68.52
9.121	68.52
9.1215	68.57
9.122	68.59
9.1225	68.59
9.123	68.63
9.1235	68.68
9.124	68.75
9.1245	68.79
9.125	68.81
9.1255	68.88
9.126	68.92
9.1265	68.97
9.127	69.01
9.1275	69.04
9.128	69.08
9.1285	69.10
9.129	69.13
9.1295	69.17
9.13	69.21
9.1305	69.24
9.131	69.24
9.1315	69.26
9.132	69.28
9.1325	69.30
9.133	69.33
9.1335	69.33
9.134	69.35
9.1345	69.37
9.135	69.39
9.1355	69.39
9.136	69.42
9.1365	69.44
9.137	69.44
9.1375	69.44
9.138	69.46
9.1385	69.46
9.139	69.50
9.1395	69.50
9.14	69.50
9.1405	69.50
9.141	69.48
9.1415	69.50
9.142	69.46
9.1425	69.44
9.143	69.48
9.1435	69.48
9.144	69.50
9.1445	69.50
9.145	69.53
9.1455	69.53
9.146	69.50
9.1465	69.50
9.147	69.50
9.1475	69.50
9.148	69.50
9.1485	69.50
9.149	69.50
9.1495	69.50
9.15	69.50
9.1505	69.50
9.151	69.50
9.1515	69.48
9.152	69.46
9.1525	69.46
9.153	69.44
9.1535	69.44
9.154	69.39
9.1545	69.39
9.155	69.37
9.1555	69.35
9.156	69.33
9.1565	69.33
9.157	69.28
9.1575	69.24
9.158	69.21
9.1585	69.17
9.159	69.17
9.1595	69.13
9.16	69.08
9.1605	69.04
9.161	68.97
9.1615	68.95
9.162	68.86
9.1625	68.81
9.163	68.81
9.1635	68.75
9.164	68.72
9.1645	68.68
9.165	68.63
9.1655	68.59
9.166	68.55
9.1665	68.52
9.167	68.46
9.1675	68.41
9.168	68.37
9.1685	68.32
9.169	68.26
9.1695	68.19
9.17	68.14
9.1705	68.10
9.171	68.03
9.1715	67.99
9.172	67.94
9.1725	67.85
9.173	67.81
9.1735	67.74
9.174	67.70
9.1745	67.65
9.175	67.61
9.1755	67.54
9.176	67.50
9.1765	67.43
9.177	67.36
9.1775	67.32
9.178	67.25
9.1785	67.21
9.179	67.14
9.1795	67.10
9.18	67.05
9.1805	66.99
9.181	66.92
9.1815	66.87
9.182	66.76
9.1825	66.72
9.183	66.67
9.1835	66.63
9.184	66.63
9.1845	66.58
9.185	66.54
9.1855	66.49
9.186	66.45
9.1865	66.43
9.187	66.38
9.1875	66.34
9.188	66.29
9.1885	66.27
9.189	66.23
9.1895	66.18
9.19	66.16
9.1905	66.14
9.191	66.05
9.1915	66.03
9.192	66.00
9.1925	65.96
9.193	65.92
9.1935	65.89
9.194	65.89
9.1945	65.87
9.195	65.85
9.1955	65.83
9.196	65.83
9.1965	65.80
9.197	65.78
9.1975	65.78
9.198	65.76
9.1985	65.78
9.199	65.78
9.1995	65.74
9.2	65.74
9.2005	65.74
9.201	65.74
9.2015	65.71
9.202	65.67
9.2025	65.69
9.203	65.67
9.2035	65.71
9.204	65.74
9.2045	65.74
9.205	65.74
9.2055	65.76
9.206	65.76
9.2065	65.78
9.207	65.78
9.2075	65.78
9.208	65.80
9.2085	65.83
9.209	65.83
9.2095	65.83
9.21	65.85
9.2105	65.83
9.211	65.83
9.2115	65.85
9.212	65.87
9.2125	65.85
9.213	65.85
9.2135	65.87
9.214	65.89
9.2145	65.89
9.215	65.92
9.2155	65.92
9.216	65.92
9.2165	65.92
9.217	65.94
9.2175	65.96
9.218	65.98
9.2185	65.98
9.219	65.98
9.2195	65.98
9.22	66.00
9.2205	65.98
9.221	66.00
9.2215	66.00
9.222	65.96
9.2225	65.96
9.223	65.96
9.2235	66.00
9.224	66.03
9.2245	66.03
9.225	66.03
9.2255	66.07
9.226	66.09
9.2265	66.09
9.227	66.09
9.2275	66.09
9.228	66.12
9.2285	66.14
9.229	66.16
9.2295	66.16
9.23	66.16
9.2305	66.16
9.231	66.18
