3.65	7.28
3.6505	7.28
3.651	7.28
3.6515	7.28
3.652	7.34
3.6525	7.34
3.653	7.28
3.6535	7.34
3.654	7.28
3.6545	7.28
3.655	7.28
3.6555	7.34
3.656	7.28
3.6565	7.28
3.657	7.28
3.6575	7.23
3.658	7.28
3.6585	7.23
3.659	7.23
3.6595	7.28
3.66	7.28
3.6605	7.28
3.661	7.28
3.6615	7.28
3.662	7.39
3.6625	7.28
3.663	7.34
3.6635	7.34
3.664	7.34
3.6645	7.34
3.665	7.34
3.6655	7.34
3.666	7.34
3.6665	7.39
3.667	7.39
3.6675	7.39
3.668	7.39
3.6685	7.34
3.669	7.28
3.6695	7.34
3.67	7.39
3.6705	7.39
3.671	7.39
3.6715	7.39
3.672	7.39
3.6725	7.45
3.673	7.39
3.6735	7.39
3.674	7.45
3.6745	7.39
3.675	7.39
3.6755	7.45
3.676	7.39
3.6765	7.39
3.677	7.39
3.6775	7.39
3.678	7.45
3.6785	7.45
3.679	7.45
3.6795	7.45
3.68	7.45
3.6805	7.45
3.681	7.51
3.6815	7.45
3.682	7.51
3.6825	7.62
3.683	7.56
3.6835	7.62
3.684	7.62
3.6845	7.56
3.685	7.62
3.6855	7.62
3.686	7.62
3.6865	7.67
3.687	7.67
3.6875	7.67
3.688	7.67
3.6885	7.67
3.689	7.67
3.6895	7.73
3.69	7.73
3.6905	7.73
3.691	7.78
3.6915	7.78
3.692	7.84
3.6925	7.84
3.693	7.84
3.6935	7.84
3.694	7.90
3.6945	7.90
3.695	7.84
3.6955	7.90
3.696	7.90
3.6965	7.90
3.697	7.90
3.6975	7.90
3.698	7.95
3.6985	7.95
3.699	7.95
3.6995	8.01
3.7	8.01
3.7005	8.01
3.701	8.06
3.7015	8.06
3.702	8.01
3.7025	8.06
3.703	8.06
3.7035	8.12
3.704	8.12
3.7045	8.12
3.705	8.17
3.7055	8.12
3.706	8.12
3.7065	8.17
3.707	8.23
3.7075	8.23
3.708	8.23
3.7085	8.23
3.709	8.23
3.7095	8.23
3.71	8.23
3.7105	8.29
3.711	8.29
3.7115	8.34
3.712	8.40
3.7125	8.40
3.713	8.45
3.7135	8.40
3.714	8.45
3.7145	8.45
3.715	8.40
3.7155	8.45
3.716	8.45
3.7165	8.45
3.717	8.45
3.7175	8.51
3.718	8.51
3.7185	8.51
3.719	8.51
3.7195	8.51
3.72	8.51
3.7205	8.56
3.721	8.56
3.7215	8.56
3.722	8.62
3.7225	8.62
3.723	8.56
3.7235	8.62
3.724	8.62
3.7245	8.62
3.725	8.62
3.7255	8.62
3.726	8.68
3.7265	8.62
3.727	8.68
3.7275	8.73
3.728	8.73
3.7285	8.68
3.729	8.68
3.7295	8.73
3.73	8.68
3.7305	8.73
3.731	8.73
3.7315	8.79
3.732	8.79
3.7325	8.84
3.733	8.79
3.7335	8.79
3.734	8.79
3.7345	8.79
3.735	8.79
3.7355	8.79
3.736	8.79
3.7365	8.79
3.737	8.79
3.7375	8.84
3.738	8.79
3.7385	8.84
3.739	8.84
3.7395	8.79
3.74	8.84
3.7405	8.84
3.741	8.79
3.7415	8.84
3.742	8.84
3.7425	8.84
3.743	8.84
3.7435	8.84
3.744	8.84
3.7445	8.90
3.745	8.90
3.7455	8.84
3.746	8.84
3.7465	8.90
3.747	8.84
3.7475	8.84
3.748	8.90
3.7485	8.90
3.749	8.90
3.7495	8.90
3.75	8.95
3.7505	8.95
3.751	8.90
3.7515	8.90
3.752	8.95
3.7525	9.01
3.753	8.95
3.7535	9.01
3.754	9.01
3.7545	9.01
3.755	8.95
3.7555	8.95
3.756	8.95
3.7565	8.95
3.757	9.01
3.7575	8.95
3.758	8.95
3.7585	9.01
3.759	8.95
3.7595	9.01
3.76	9.01
3.7605	8.95
3.761	9.01
3.7615	9.01
3.762	9.01
3.7625	9.01
3.763	9.01
3.7635	9.01
3.764	9.01
3.7645	9.01
3.765	9.07
3.7655	9.01
3.766	9.07
3.7665	9.07
3.767	9.07
3.7675	9.07
3.768	9.07
3.7685	9.07
3.769	9.12
3.7695	9.12
3.77	9.07
3.7705	9.12
3.771	9.07
3.7715	9.12
3.772	9.18
3.7725	9.18
3.773	9.18
3.7735	9.23
3.774	9.18
3.7745	9.18
3.775	9.18
3.7755	9.18
3.776	9.18
3.7765	9.18
3.777	9.18
3.7775	9.23
3.778	9.18
3.7785	9.23
3.779	9.23
3.7795	9.23
3.78	9.23
3.7805	9.23
3.781	9.29
3.7815	9.29
3.782	9.29
3.7825	9.29
3.783	9.29
3.7835	9.29
3.784	9.34
3.7845	9.29
3.785	9.29
3.7855	9.34
3.786	9.34
3.7865	9.34
3.787	9.40
3.7875	9.34
3.788	9.34
3.7885	9.40
3.789	9.34
3.7895	9.40
3.79	9.40
3.7905	9.40
3.791	9.40
3.7915	9.40
3.792	9.40
3.7925	9.46
3.793	9.46
3.7935	9.46
3.794	9.46
3.7945	9.46
3.795	9.46
3.7955	9.46
3.796	9.46
3.7965	9.46
3.797	9.46
3.7975	9.46
3.798	9.46
3.7985	9.46
3.799	9.46
3.7995	9.46
3.8	9.51
3.8005	9.46
3.801	9.40
3.8015	9.46
3.802	9.51
3.8025	9.51
3.803	9.57
3.8035	9.57
3.804	9.57
3.8045	9.57
3.805	9.51
3.8055	9.57
3.806	9.57
3.8065	9.51
3.807	9.57
3.8075	9.57
3.808	9.57
3.8085	9.57
3.809	9.57
3.8095	9.57
3.81	9.57
3.8105	9.57
3.811	9.57
3.8115	9.57
3.812	9.57
3.8125	9.57
3.813	9.62
3.8135	9.62
3.814	9.62
3.8145	9.57
3.815	9.57
3.8155	9.57
3.816	9.57
3.8165	9.57
3.817	9.57
3.8175	9.57
3.818	9.57
3.8185	9.57
3.819	9.57
3.8195	9.51
3.82	9.57
3.8205	9.57
3.821	9.51
3.8215	9.51
3.822	9.51
3.8225	9.51
3.823	9.57
3.8235	9.57
3.824	9.57
3.8245	9.57
3.825	9.57
3.8255	9.57
3.826	9.51
3.8265	9.51
3.827	9.51
3.8275	9.57
3.828	9.51
3.8285	9.51
3.829	9.51
3.8295	9.51
3.83	9.51
3.8305	9.51
3.831	9.51
3.8315	9.51
3.832	9.51
3.8325	9.57
3.833	9.57
3.8335	9.51
3.834	9.57
3.8345	9.51
3.835	9.51
3.8355	9.51
3.836	9.57
3.8365	9.51
3.837	9.46
3.8375	9.51
3.838	9.51
3.8385	9.46
3.839	9.46
3.8395	9.46
3.84	9.46
3.8405	9.46
3.841	9.51
3.8415	9.46
3.842	9.46
3.8425	9.51
3.843	9.51
3.8435	9.51
3.844	9.51
3.8445	9.51
3.845	9.51
3.8455	9.51
3.846	9.57
3.8465	9.57
3.847	9.57
3.8475	9.51
3.848	9.51
3.8485	9.51
3.849	9.51
3.8495	9.51	#* 75% 
3.85	9.57
3.8505	9.51
3.851	9.51
3.8515	9.51
3.852	9.57
3.8525	9.62
3.853	9.57
3.8535	9.57
3.854	9.57
3.8545	9.57
3.855	9.62
3.8555	9.57
3.856	9.57
3.8565	9.57
3.857	9.57
3.8575	9.57
3.858	9.57
3.8585	9.57
3.859	9.57
3.8595	9.57
3.86	9.57
3.8605	9.57
3.861	9.57
3.8615	9.57
3.862	9.62
3.8625	9.68
3.863	9.68
3.8635	9.68
3.864	9.68
3.8645	9.68
3.865	9.73
3.8655	9.73
3.866	9.73
3.8665	9.73
3.867	9.68
3.8675	9.68
3.868	9.73
3.8685	9.73
3.869	9.73
3.8695	9.73
3.87	9.73
3.8705	9.79
3.871	9.85
3.8715	9.85
3.872	9.85
3.8725	9.85
3.873	9.85
3.8735	9.85
3.874	9.90
3.8745	9.90
3.875	9.90
3.8755	9.85
3.876	9.90
3.8765	9.90
3.877	9.90
3.8775	9.90
3.878	9.96
3.8785	9.90
3.879	9.96
3.8795	9.96
3.88	9.96
3.8805	9.96
3.881	9.96
3.8815	10.01
3.882	10.07
3.8825	10.07
3.883	10.01
3.8835	10.01
3.884	10.01
3.8845	10.01
3.885	10.07
3.8855	10.07
3.886	10.07
3.8865	10.07
3.887	10.01
3.8875	10.07
3.888	10.07
3.8885	10.07
3.889	10.07
3.8895	10.07
3.89	10.07
3.8905	10.13
3.891	10.18
3.8915	10.18
3.892	10.18
3.8925	10.18
3.893	10.18
3.8935	10.18
3.894	10.13
3.8945	10.13
3.895	10.13
3.8955	10.13
3.896	10.13
3.8965	10.13
3.897	10.18
3.8975	10.13
3.898	10.13
3.8985	10.13
3.899	10.13
3.8995	10.18
3.9	10.13
3.9005	10.13
3.901	10.18
3.9015	10.18
3.902	10.13
3.9025	10.18
3.903	10.18
3.9035	10.13
3.904	10.18
3.9045	10.18
3.905	10.18
3.9055	10.18
3.906	10.18
3.9065	10.13
3.907	10.13
3.9075	10.18
3.908	10.18
3.9085	10.13
3.909	10.13
3.9095	10.18
3.91	10.13
3.9105	10.18
3.911	10.18
3.9115	10.24
3.912	10.18
3.9125	10.18
3.913	10.18
3.9135	10.18
3.914	10.18
3.9145	10.13
3.915	10.13
3.9155	10.13
3.916	10.13
3.9165	10.13
3.917	10.07
3.9175	10.07
3.918	10.13
3.9185	10.07
3.919	10.07
3.9195	10.07
3.92	10.07
3.9205	10.07
3.921	10.07
3.9215	10.07
3.922	10.07
3.9225	10.01
3.923	10.01
3.9235	10.01
3.924	10.01
3.9245	10.01
3.925	10.01
3.9255	10.01
3.926	10.01
3.9265	10.01
3.927	10.01
3.9275	10.01
3.928	10.01
3.9285	10.01
3.929	9.96
3.9295	10.01
3.93	9.96
3.9305	9.96
3.931	10.01
3.9315	10.01
3.932	9.96
3.9325	9.96
3.933	9.96
3.9335	9.90
3.934	9.90
3.9345	9.90
3.935	9.90
3.9355	9.85
3.936	9.85
3.9365	9.85
3.937	9.79
3.9375	9.85
3.938	9.85
3.9385	9.79
3.939	9.79
3.9395	9.79
3.94	9.73
3.9405	9.73
3.941	9.79
3.9415	9.79
3.942	9.73
3.9425	9.73
3.943	9.73
3.9435	9.68
3.944	9.68
3.9445	9.68
3.945	9.68
3.9455	9.68
3.946	9.68
3.9465	9.68
3.947	9.68
3.9475	9.68
3.948	9.62
3.9485	9.62
3.949	9.62
3.9495	9.62
3.95	9.62
3.9505	9.62
3.951	9.68
3.9515	9.62
3.952	9.62
3.9525	9.62
3.953	9.62
3.9535	9.62
3.954	9.62
3.9545	9.57
3.955	9.57
3.9555	9.57
3.956	9.57
3.9565	9.57
3.957	9.57
3.9575	9.57
3.958	9.57
3.9585	9.57
3.959	9.57
3.9595	9.57
3.96	9.57
3.9605	9.57
3.961	9.57
3.9615	9.57
3.962	9.57
3.9625	9.57
3.963	9.62
3.9635	9.62
3.964	9.62
3.9645	9.57
3.965	9.62
3.9655	9.68
3.966	9.68
3.9665	9.62
3.967	9.68
3.9675	9.68
3.968	9.68
3.9685	9.73
3.969	9.73
3.9695	9.73
3.97	9.79
3.9705	9.79
3.971	9.85
3.9715	9.85
3.972	9.85
3.9725	9.90
3.973	9.90
3.9735	9.85
3.974	9.90
3.9745	9.90
3.975	9.96
3.9755	9.96
3.976	9.96
3.9765	9.96
3.977	10.01
3.9775	10.01
3.978	10.01
3.9785	10.07
3.979	10.07
3.9795	10.13
3.98	10.13
3.9805	10.13
3.981	10.18
3.9815	10.18
3.982	10.24
3.9825	10.24
3.983	10.24
3.9835	10.24
3.984	10.29
3.9845	10.29
3.985	10.29
3.9855	10.35
3.986	10.35
3.9865	10.35
3.987	10.40
3.9875	10.40
3.988	10.46
3.9885	10.46
3.989	10.52
3.9895	10.52
3.99	10.57
3.9905	10.57
3.991	10.63
3.9915	10.63
3.992	10.63
3.9925	10.63
3.993	10.68
3.9935	10.63
3.994	10.63
3.9945	10.68
3.995	10.68
3.9955	10.68
3.996	10.74
3.9965	10.74
3.997	10.74
3.9975	10.74
3.998	10.74
3.9985	10.74
3.999	10.79
3.9995	10.79
4	10.79
4.0005	10.79
4.001	10.79
4.0015	10.79
4.002	10.85
4.0025	10.91
4.003	10.85
4.0035	10.85
4.004	10.85
4.0045	10.85
4.005	10.91
4.0055	10.91
4.006	10.91
4.0065	10.96
4.007	10.91
4.0075	10.91
4.008	10.96
4.0085	10.96
4.009	10.96
4.0095	10.96
4.01	10.96
4.0105	11.02
4.011	11.02
4.0115	11.02
4.012	11.02
4.0125	11.07
4.013	11.02
4.0135	11.02
4.014	11.02
4.0145	11.07
4.015	11.07
4.0155	11.02
4.016	11.02
4.0165	11.07
4.017	11.07
4.0175	11.07
4.018	11.07
4.0185	11.13
4.019	11.07
4.0195	11.07
4.02	11.07
4.0205	11.07
4.021	11.13
4.0215	11.07
4.022	11.13
4.0225	11.13
4.023	11.13
4.0235	11.13
4.024	11.13
4.0245	11.13
4.025	11.13
4.0255	11.13
4.026	11.18
4.0265	11.18
4.027	11.18
4.0275	11.13
4.028	11.13
4.0285	11.18
4.029	11.18
4.0295	11.13
4.03	11.18
4.0305	11.24
4.031	11.30
4.0315	11.30
4.032	11.24
4.0325	11.24
4.033	11.24
4.0335	11.24
4.034	11.24
4.0345	11.24
4.035	11.24
4.0355	11.24
4.036	11.24
4.0365	11.24
4.037	11.30
4.0375	11.24
4.038	11.30
4.0385	11.30
4.039	11.24
4.0395	11.30
4.04	11.30
4.0405	11.35
4.041	11.35
4.0415	11.35
4.042	11.35
4.0425	11.41
4.043	11.41
4.0435	11.41
4.044	11.41
4.0445	11.46
4.045	11.46
4.0455	11.46
4.046	11.52
4.0465	11.52
4.047	11.52
4.0475	11.52
4.048	11.57
4.0485	11.57
4.049	11.57
4.0495	11.57
4.05	11.57
4.0505	11.63
4.051	11.69
4.0515	11.63
4.052	11.69
4.0525	11.69
4.053	11.69
4.0535	11.69
4.054	11.74
4.0545	11.74
4.055	11.74
4.0555	11.80
4.056	11.80
4.0565	11.80
4.057	11.80
4.0575	11.74
4.058	11.85
4.0585	11.85
4.059	11.85
4.0595	11.85
4.06	11.85
4.0605	11.91
4.061	11.96
4.0615	11.96
4.062	11.96
4.0625	12.02
4.063	12.02
4.0635	12.02
4.064	12.08
4.0645	12.08
4.065	12.13
4.0655	12.19
4.066	12.19
4.0665	12.19
4.067	12.19
4.0675	12.24
4.068	12.30
4.0685	12.30
4.069	12.30
4.0695	12.35
4.07	12.35
4.0705	12.41
4.071	12.41
4.0715	12.47
4.072	12.47
4.0725	12.47
4.073	12.52
4.0735	12.52
4.074	12.58
4.0745	12.58
4.075	12.63
4.0755	12.63
4.076	12.63
4.0765	12.69
4.077	12.63
4.0775	12.63
4.078	12.69
4.0785	12.69
4.079	12.74
4.0795	12.80
4.08	12.80
4.0805	12.86
4.081	12.97
4.0815	12.97
4.082	12.97
4.0825	13.02
4.083	12.97
4.0835	13.08
4.084	13.08
4.0845	13.08
4.085	13.13
4.0855	13.08
4.086	13.13
4.0865	13.19
4.087	13.19
4.0875	13.25
4.088	13.25
4.0885	13.25
4.089	13.30
4.0895	13.36
4.09	13.41
4.0905	13.47
4.091	13.52
4.0915	13.52
4.092	13.58
4.0925	13.64
4.093	13.64
4.0935	13.64
4.094	13.69
4.0945	13.69
4.095	13.75
4.0955	13.80
4.096	13.80
4.0965	13.86
4.097	13.92
4.0975	13.92
4.098	13.97
4.0985	14.03
4.099	14.03
4.0995	14.14
4.1	14.19
4.1005	14.19
4.101	14.31
4.1015	14.31
4.102	14.36
4.1025	14.42
4.103	14.47
4.1035	14.53
4.104	14.58
4.1045	14.64
4.105	14.70
4.1055	14.75
4.106	14.81
4.1065	14.86
4.107	14.97
4.1075	15.03
4.108	15.14
4.1085	15.20
4.109	15.25
4.1095	15.36
4.11	15.42
4.1105	15.53
4.111	15.64
4.1115	15.75
4.112	15.81
4.1125	15.98
4.113	16.09
4.1135	16.20
4.114	16.26
4.1145	16.37
4.115	16.48
4.1155	16.59
4.116	16.70
4.1165	16.81
4.117	16.92
4.1175	17.04
4.118	17.20
4.1185	17.31
4.119	17.43
4.1195	17.59
4.12	17.65
4.1205	17.82
4.121	17.98
4.1215	18.10
4.122	18.21
4.1225	18.37
4.123	18.49
4.1235	18.60
4.124	18.76
4.1245	18.93
4.125	19.04
4.1255	19.21
4.126	19.38
4.1265	19.49
4.127	19.60
4.1275	19.77
4.128	19.88
4.1285	19.99
4.129	20.21
4.1295	20.38
4.13	20.55
4.1305	20.71
4.131	20.88
4.1315	20.99
4.132	21.16
4.1325	21.33
4.133	21.49
4.1335	21.66
4.134	21.83
4.1345	22.00
4.135	22.16
4.1355	22.28
4.136	22.44
4.1365	22.61
4.137	22.72
4.1375	22.89
4.138	23.11
4.1385	23.28
4.139	23.50
4.1395	23.67
4.14	23.84
4.1405	24.00
4.141	24.23
4.1415	24.39
4.142	24.56
4.1425	24.78
4.143	25.01
4.1435	25.17
4.144	25.40
4.1445	25.62
4.145	25.79
4.1455	26.01
4.146	26.23
4.1465	26.46
4.147	26.62
4.1475	26.85
4.148	27.07
4.1485	27.29
4.149	27.51
4.1495	27.74
4.15	27.90
4.1505	28.18
4.151	28.35
4.1515	28.57
4.152	28.80
4.1525	28.96
4.153	29.24
4.1535	29.46
4.154	29.63
4.1545	29.86
4.155	30.08
4.1555	30.36
4.156	30.47
4.1565	30.69
4.157	30.97
4.1575	31.19
4.158	31.42
4.1585	31.64
4.159	31.86
4.1595	32.08
4.16	32.31
4.1605	32.53
4.161	32.75
4.1615	32.98
4.162	33.20
4.1625	33.42
4.163	33.70
4.1635	33.92
4.164	34.15
4.1645	34.43
4.165	34.59
4.1655	34.87
4.166	35.09
4.1665	35.32
4.167	35.54
4.1675	35.76
4.168	36.04
4.1685	36.26
4.169	36.54
4.1695	36.82
4.17	37.04
4.1705	37.27
4.171	37.55
4.1715	37.83
4.172	38.16
4.1725	38.38
4.173	38.66
4.1735	39.05
4.174	39.39
4.1745	39.66
4.175	39.94
4.1755	40.22
4.176	40.50
4.1765	40.78
4.177	41.06
4.1775	41.34
4.178	41.67
4.1785	41.89
4.179	42.23
4.1795	42.56
4.18	42.79
4.1805	43.06
4.181	43.40
4.1815	43.73
4.182	44.07
4.1825	44.35
4.183	44.74
4.1835	45.07
4.184	45.40
4.1845	45.74
4.185	46.07
4.1855	46.35
4.186	46.63
4.1865	46.97
4.187	47.36
4.1875	47.63
4.188	47.91
4.1885	48.30
4.189	48.64
4.1895	48.97
4.19	49.31
4.1905	49.58
4.191	50.03
4.1915	50.37
4.192	50.70
4.1925	51.03
4.193	51.42
4.1935	51.81
4.194	52.20
4.1945	52.65
4.195	53.04
4.1955	53.32
4.196	53.71
4.1965	53.99
4.197	54.32
4.1975	54.71
4.198	54.99
4.1985	55.38
4.199	55.72
4.1995	56.05
4.2	56.44
4.2005	56.77
4.201	57.11
4.2015	57.39
4.202	57.78
4.2025	58.11
4.203	58.45
4.2035	58.89
4.204	59.28
4.2045	59.62
4.205	60.01
4.2055	60.29
4.206	60.62
4.2065	61.01
4.207	61.29
4.2075	61.57
4.208	61.96
4.2085	62.18
4.209	62.57
4.2095	62.91
4.21	63.18
4.2105	63.52
4.211	63.80
4.2115	64.19
4.212	64.52
4.2125	64.86
4.213	65.41
4.2135	65.80
4.214	66.19
4.2145	66.58
4.215	66.86
4.2155	67.20
4.216	67.53
4.2165	67.81
4.217	68.14
4.2175	68.48
4.218	68.81
4.2185	69.15
4.219	69.48
4.2195	69.76
4.22	70.10
4.2205	70.49
4.221	70.76
4.2215	71.10
4.222	71.43
4.2225	71.82
4.223	72.27
4.2235	72.66
4.224	73.10
4.2245	73.44
4.225	73.77
4.2255	74.11
4.226	74.44
4.2265	74.83
4.227	75.17
4.2275	75.50
4.228	75.84
4.2285	76.17
4.229	76.56
4.2295	76.84
4.23	77.23
4.2305	77.56
4.231	77.84
4.2315	78.23
4.232	78.57
4.2325	78.90
4.233	79.29
4.2335	79.85
4.234	80.29
4.2345	80.68
4.235	81.02
4.2355	81.35
4.236	81.69
4.2365	82.02
4.237	82.25
4.2375	82.58
4.238	82.91
4.2385	83.19
4.239	83.53
4.2395	83.81
4.24	84.03
4.2405	84.31
4.241	84.64
4.2415	84.92
4.242	85.20
4.2425	85.53
4.243	85.87
4.2435	86.20
4.244	86.59
4.2445	86.87
4.245	87.15
4.2455	87.43
4.246	87.71
4.2465	87.93
4.247	88.21
4.2475	88.49
4.248	88.77
4.2485	89.04
4.249	89.21
4.2495	89.49
4.25	89.71
4.2505	89.99
4.251	90.22
4.2515	90.49
4.252	90.77
4.2525	91.00
4.253	91.50
4.2535	92.00
4.254	92.33
4.2545	92.61
4.255	92.83
4.2555	93.11
4.256	93.28
4.2565	93.50
4.257	93.78
4.2575	94.01
4.258	94.17
4.2585	94.45
4.259	94.67
4.2595	94.84
4.26	95.12
4.2605	95.34
4.261	95.57
4.2615	95.79
4.262	96.07
4.2625	96.40
4.263	96.74
4.2635	97.13
4.264	97.41
4.2645	97.63
4.265	97.91
4.2655	98.19
4.266	98.41
4.2665	98.69
4.267	98.97
4.2675	99.19
4.268	99.41
4.2685	99.75
4.269	100.02
4.2695	100.25
4.27	100.53
4.2705	100.80
4.271	101.08
4.2715	101.47
4.272	101.75
4.2725	102.03
4.273	102.37
4.2735	102.87
4.274	103.42
4.2745	103.87
4.275	104.26
4.2755	104.59
4.276	104.87
4.2765	105.21
4.277	105.49
4.2775	105.82
4.278	106.10
4.2785	106.49
4.279	106.77
4.2795	107.05
4.28	107.38
4.2805	107.72
4.281	107.99
4.2815	108.33
4.282	108.66
4.2825	108.94
4.283	109.44
4.2835	109.95
4.284	110.28
4.2845	110.73
4.285	111.06
4.2855	111.45
4.286	111.78
4.2865	112.12
4.287	112.45
4.2875	112.79
4.288	113.18
4.2885	113.51
4.289	113.85
4.2895	114.24
4.29	114.63
4.2905	114.96
4.291	115.35
4.2915	115.74
4.292	116.19
4.2925	116.52
4.293	117.19
4.2935	117.92
4.294	118.42
4.2945	118.86
4.295	119.36
4.2955	119.75
4.296	120.14
4.2965	120.48
4.297	120.92
4.2975	121.26
4.298	121.59
4.2985	121.98
4.299	122.37
4.2995	122.71
4.3	123.10
4.3005	123.49
4.301	123.88
4.3015	124.21
4.302	124.60
4.3025	125.05
4.303	125.61
4.3035	126.11
4.304	126.50
4.3045	127.00
4.305	127.33
4.3055	127.72
4.306	128.11
4.3065	128.45
4.307	128.78
4.3075	129.17
4.308	129.56
4.3085	129.90
4.309	130.23
4.3095	130.62
4.31	130.96
4.3105	131.29
4.311	131.63
4.3115	132.02
4.312	132.35
4.3125	132.74
4.313	133.69
4.3135	134.41
4.314	134.69
4.3145	135.14
4.315	135.47
4.3155	135.75
4.316	136.03
4.3165	136.31
4.317	136.64
4.3175	136.92
4.318	137.20
4.3185	137.42
4.319	137.65
4.3195	137.87
4.32	138.09
4.3205	138.37
4.321	138.65
4.3215	138.87
4.322	139.09
4.3225	139.43
4.323	139.82
4.3235	140.10
4.324	140.38
4.3245	140.65
4.325	140.82
4.3255	140.99
4.326	141.21
4.3265	141.38
4.327	141.60
4.3275	141.71
4.328	141.88
4.3285	142.10
4.329	142.22
4.3295	142.33
4.33	142.49
4.3305	142.66
4.331	142.83
4.3315	143.00
4.332	143.16
4.3325	143.33
4.333	143.50
4.3335	144.22
4.334	144.72
4.3345	144.89
4.335	145.11
4.3355	145.28
4.336	145.39
4.3365	145.45
4.337	145.56
4.3375	145.73
4.338	145.78
4.3385	145.89
4.339	146.01
4.3395	146.12
4.34	146.23
4.3405	146.28
4.341	146.34
4.3415	146.45
4.342	146.56
4.3425	146.62
4.343	147.01
4.3435	147.29
4.344	147.40
4.3445	147.57
4.345	147.68
4.3455	147.73
4.346	147.79
4.3465	147.84
4.347	147.96
4.3475	148.07
4.348	148.12
4.3485	148.18
4.349	148.23
4.3495	148.35
4.35	148.40
4.3505	148.51
4.351	148.57
4.3515	148.62
4.352	148.79
4.3525	148.79
4.353	149.35
4.3535	150.07
4.354	150.30
4.3545	150.41
4.355	150.63
4.3555	150.74
4.356	150.85
4.3565	151.02
4.357	151.13
4.3575	151.24
4.358	151.41
4.3585	151.58
4.359	151.69
4.3595	151.86
4.36	152.02
4.3605	152.25
4.361	152.41
4.3615	152.58
4.362	152.75
4.3625	153.14
4.363	153.59
4.3635	153.92
4.364	154.20
4.3645	154.48
4.365	154.76
4.3655	154.98
4.366	155.20
4.3665	155.42
4.367	155.70
4.3675	155.93
4.368	156.15
4.3685	156.37
4.369	156.59
4.3695	156.82
4.37	157.04
4.3705	157.26
4.371	157.43
4.3715	157.71
4.372	157.88
4.3725	158.21
4.373	159.10
4.3735	159.72
4.374	159.94
4.3745	160.22
4.375	160.44
4.3755	160.55
4.376	160.66
4.3765	160.83
4.377	161.00
4.3775	161.17
4.378	161.33
4.3785	161.44
4.379	161.56
4.3795	161.72
4.38	161.78
4.3805	161.95
4.381	162.06
4.3815	162.22
4.382	162.39
4.3825	162.78
4.383	163.12
4.3835	163.28
4.384	163.51
4.3845	163.73
4.385	163.90
4.3855	164.06
4.386	164.23
4.3865	164.34
4.387	164.45
4.3875	164.62
4.388	164.79
4.3885	164.96
4.389	165.12
4.3895	165.29
4.39	165.46
4.3905	165.62
4.391	165.79
4.3915	165.96
4.392	166.18
4.3925	166.35
4.393	166.79
4.3935	167.63
4.394	168.13
4.3945	168.41
4.395	168.63
4.3955	168.86
4.396	169.08
4.3965	169.30
4.397	169.47
4.3975	169.64
4.398	169.86
4.3985	170.03
4.399	170.19
4.3995	170.36
4.4	170.53
4.4005	170.75
4.401	170.86
4.4015	171.09
4.402	171.20
4.4025	171.42
4.403	171.92
4.4035	172.26
4.404	172.42
4.4045	172.65
4.405	172.81
4.4055	172.93
4.406	173.04
4.4065	173.15
4.407	173.20
4.4075	173.32
4.408	173.37
4.4085	173.48
4.409	173.54
4.4095	173.59
4.41	173.59
4.4105	173.65
4.411	173.71
4.4115	173.76
4.412	173.71
4.4125	173.76
4.413	173.76
4.4135	174.04
4.414	174.71
4.4145	175.04
4.415	174.99
4.4155	175.04
4.416	175.04
4.4165	174.93
4.417	174.93
4.4175	174.88
4.418	174.88
4.4185	174.82
4.419	174.76
4.4195	174.71
4.42	174.71
4.4205	174.65
4.421	174.60
4.4215	174.54
4.422	174.54
4.4225	174.43
4.423	174.54
4.4235	174.93
4.424	175.04
4.4245	175.04
4.425	175.10
4.4255	175.10
4.426	175.10
4.4265	175.10
4.427	175.04
4.4275	174.99
4.428	174.99
4.4285	174.99
4.429	174.99
4.4295	174.99
4.43	174.99
4.4305	174.99
4.431	174.99
4.4315	175.04
4.432	175.10
4.4325	175.10
4.433	175.15
4.4335	175.21
4.434	175.66
4.4345	176.49
4.435	176.71
4.4355	176.83
4.436	177.05
4.4365	177.16
4.437	177.27
4.4375	177.38
4.438	177.50
4.4385	177.61
4.439	177.77
4.4395	177.94
4.44	178.11
4.4405	178.28
4.441	178.44
4.4415	178.55
4.442	178.72
4.4425	178.89
4.443	179.00
4.4435	179.39
4.444	179.89
4.4445	180.11
4.445	180.28
4.4455	180.45
4.446	180.62
4.4465	180.73
4.447	180.84
4.4475	180.90
4.448	181.01
4.4485	181.06
4.449	181.17
4.4495	181.23
4.45	181.29
4.4505	181.34
4.451	181.45
4.4515	181.45
4.452	181.51
4.4525	181.56
4.453	181.62
4.4535	181.79
4.454	182.51
4.4545	182.96
4.455	182.96
4.4555	183.01
4.456	183.07
4.4565	182.96
4.457	182.96
4.4575	182.96
4.458	182.90
4.4585	182.90
4.459	182.90
4.4595	182.85
4.46	182.85
4.4605	182.79
4.461	182.79
4.4615	182.68
4.462	182.68
4.4625	182.62
4.463	182.73
4.4635	183.07
4.464	183.24
4.4645	183.24
4.465	183.29
4.4655	183.29
4.466	183.29
4.4665	183.24
4.467	183.18
4.4675	183.18
4.468	183.12
4.4685	183.01
4.469	183.01
4.4695	182.96
4.47	182.90
4.4705	182.85
4.471	182.79
4.4715	182.73
4.472	182.73
4.4725	182.68
4.473	182.79
4.4735	183.40
4.474	183.85
4.4745	183.85
4.475	183.85
4.4755	183.90
4.476	183.85
4.4765	183.79
4.477	183.74
4.4775	183.68
4.478	183.63
4.4785	183.57
4.479	183.51
4.4795	183.46
4.48	183.40
4.4805	183.35
4.481	183.24
4.4815	183.18
4.482	183.18
4.4825	183.12
4.483	183.29
4.4835	183.51
4.484	183.46
4.4845	183.46
4.485	183.40
4.4855	183.35
4.486	183.18
4.4865	183.07
4.487	183.01
4.4875	182.85
4.488	182.73
4.4885	182.57
4.489	182.46
4.4895	182.34
4.49	182.18
4.4905	181.95
4.491	181.84
4.4915	181.62
4.492	181.45
4.4925	181.34
4.493	181.56
4.4935	182.01
4.494	182.07
4.4945	181.79
4.495	181.68
4.4955	181.51
4.496	181.23
4.4965	180.95
4.497	180.73
4.4975	180.50
4.498	180.34
4.4985	180.06
4.499	179.84
4.4995	179.61
4.5	179.45
4.5005	179.22
4.501	179.00
4.5015	178.83
4.502	178.61
4.5025	178.55
4.503	178.72
4.5035	178.72
4.504	178.55
4.5045	178.50
4.505	178.33
4.5055	178.16
4.506	178.00
4.5065	177.89
4.507	177.77
4.5075	177.61
4.508	177.55
4.5085	177.50
4.509	177.33
4.5095	177.22
4.51	177.16
4.5105	177.11
4.511	177.05
4.5115	176.99
4.512	176.94
4.5125	177.16
4.513	177.77
4.5135	178.11
4.514	178.16
4.5145	178.22
4.515	178.33
4.5155	178.28
4.516	178.28
4.5165	178.33
4.517	178.39
4.5175	178.39
4.518	178.39
4.5185	178.44
4.519	178.55
4.5195	178.55
4.52	178.67
4.5205	178.72
4.521	178.78
4.5215	178.83
4.522	179.00
4.5225	179.45
4.523	179.61
4.5235	179.72
4.524	179.84
4.5245	179.95
4.525	180.00
4.5255	180.11
4.526	180.17
4.5265	180.23
4.527	180.34
4.5275	180.39
4.528	180.45
4.5285	180.50
4.529	180.62
4.5295	180.67
4.53	180.78
4.5305	180.90
4.531	180.90
4.5315	181.01
4.532	181.23
4.5325	181.79
4.533	182.40
4.5335	182.57
4.534	182.68
4.5345	182.85
4.535	182.90
4.5355	182.96
4.536	183.01
4.5365	183.07
4.537	183.12
4.5375	183.18
4.538	183.24
4.5385	183.29
4.539	183.29
4.5395	183.35
4.54	183.40
4.5405	183.40
4.541	183.40
4.5415	183.46
4.542	183.79
4.5425	184.02
4.543	184.07
4.5435	184.18
4.544	184.13
4.5445	184.18
4.545	184.18
4.5455	184.13
4.546	184.13
4.5465	184.13
4.547	184.07
4.5475	184.02
4.548	184.02
4.5485	183.96
4.549	183.96
4.5495	183.90
4.55	183.90
4.5505	183.85
4.551	183.79
4.5515	183.79
4.552	184.18
4.5525	184.74
4.553	184.85
4.5535	184.91
4.554	184.91
4.5545	184.85
4.555	184.74
4.5555	184.68
4.556	184.63
4.5565	184.52
4.557	184.35
4.5575	184.24
4.558	184.18
4.5585	184.02
4.559	183.90
4.5595	183.74
4.56	183.63
4.5605	183.51
4.561	183.35
4.5615	183.35
4.562	183.51
4.5625	183.40
4.563	183.24
4.5635	183.12
4.564	182.90
4.5645	182.68
4.565	182.46
4.5655	182.29
4.566	182.01
4.5665	181.79
4.567	181.56
4.5675	181.34
4.568	181.06
4.5685	180.84
4.569	180.56
4.5695	180.34
4.57	180.06
4.5705	179.84
4.571	179.56
4.5715	179.33
4.572	179.28
4.5725	179.50
4.573	179.72
4.5735	179.61
4.574	179.39
4.5745	179.17
4.575	179.00
4.5755	178.72
4.576	178.50
4.5765	178.22
4.577	178.05
4.5775	177.83
4.578	177.66
4.5785	177.44
4.579	177.27
4.5795	177.11
4.58	176.94
4.5805	176.83
4.581	176.66
4.5815	176.55
4.582	176.66
4.5825	176.83
4.583	176.83
4.5835	176.83
4.584	176.83
4.5845	176.77
4.585	176.66
4.5855	176.66
4.586	176.60
4.5865	176.55
4.587	176.60
4.5875	176.60
4.588	176.60
4.5885	176.60
4.589	176.66
4.5895	176.66
4.59	176.71
4.5905	176.71
4.591	176.77
4.5915	176.88
4.592	177.27
4.5925	177.94
4.593	178.28
4.5935	178.33
4.594	178.50
4.5945	178.61
4.595	178.72
4.5955	178.78
4.596	178.83
4.5965	178.94
4.597	179.06
4.5975	179.11
4.598	179.22
4.5985	179.33
4.599	179.45
4.5995	179.61
4.6	179.67
4.6005	179.84
4.601	179.95
4.6015	180.17
4.602	180.73
4.6025	181.01
4.603	181.17
4.6035	181.40
4.604	181.62
4.6045	181.79
4.605	181.95
4.6055	182.12
4.606	182.34
4.6065	182.51
4.607	182.68
4.6075	182.85
4.608	183.01
4.6085	183.24
4.609	183.40
4.6095	183.51
4.61	183.68
4.6105	183.90
4.611	184.07
4.6115	184.35
4.612	185.02
4.6125	185.69
4.613	185.91
4.6135	186.19
4.614	186.36
4.6145	186.58
4.615	186.75
4.6155	186.91
4.616	187.08
4.6165	187.30
4.617	187.47
4.6175	187.69
4.618	187.86
4.6185	188.03
4.619	188.20
4.6195	188.36
4.62	188.53
4.6205	188.81
4.621	189.03
4.6215	189.48
4.622	189.98
4.6225	190.15
4.623	190.37
4.6235	190.65
4.624	190.87
4.6245	191.04
4.625	191.15
4.6255	191.32
4.626	191.54
4.6265	191.65
4.627	191.82
4.6275	191.99
4.628	192.10
4.6285	192.21
4.629	192.38
4.6295	192.49
4.63	192.60
4.6305	192.71
4.631	192.82
4.6315	193.27
4.632	193.94
4.6325	194.16
4.633	194.38
4.6335	194.66
4.634	194.72
4.6345	194.77
4.635	194.83
4.6355	194.83
4.636	194.88
4.6365	194.88
4.637	194.88
4.6375	194.88
4.638	194.88
4.6385	194.88
4.639	194.94
4.6395	194.88
4.64	194.88
4.6405	194.83
4.641	194.88
4.6415	195.16
4.642	195.22
4.6425	195.22
4.643	195.22
4.6435	195.16
4.644	195.05
4.6445	194.94
4.645	194.88
4.6455	194.72
4.646	194.61
4.6465	194.49
4.647	194.33
4.6475	194.16
4.648	193.99
4.6485	193.83
4.649	193.66
4.6495	193.49
4.65	193.27
4.6505	193.10
4.651	193.05
4.6515	193.44
4.652	193.60
4.6525	193.44
4.653	193.49
4.6535	193.38
4.654	193.16
4.6545	192.99
4.655	192.77
4.6555	192.54
4.656	192.32
4.6565	192.10
4.657	191.87
4.6575	191.65
4.658	191.43
4.6585	191.21
4.659	191.04
4.6595	190.87
4.66	190.65
4.6605	190.48
4.661	190.65
4.6615	190.70
4.662	190.59
4.6625	190.54
4.663	190.48
4.6635	190.37
4.664	190.31
4.6645	190.20
4.665	190.15
4.6655	190.04
4.666	190.04
4.6665	189.98
4.667	189.92
4.6675	189.92
4.668	189.92
4.6685	189.87
4.669	189.87
4.6695	189.92
4.67	189.98
4.6705	190.04
4.671	190.43
4.6715	191.04
4.672	191.32
4.6725	191.54
4.673	191.87
4.6735	191.99
4.674	192.15
4.6745	192.32
4.675	192.49
4.6755	192.71
4.676	192.88
4.6765	193.05
4.677	193.27
4.6775	193.44
4.678	193.66
4.6785	193.88
4.679	194.10
4.6795	194.33
4.68	194.61
4.6805	195.00
4.681	195.50
4.6815	195.89
4.682	196.17
4.6825	196.50
4.683	196.84
4.6835	197.11
4.684	197.34
4.6845	197.62
4.685	197.84
4.6855	198.17
4.686	198.40
4.6865	198.67
4.687	198.95
4.6875	199.23
4.688	199.51
4.6885	199.79
4.689	200.07
4.6895	200.35
4.69	200.62
4.6905	200.90
4.691	201.24
4.6915	201.96
4.692	202.69
4.6925	203.02
4.693	203.47
4.6935	203.91
4.694	204.19
4.6945	204.41
4.695	204.69
4.6955	204.97
4.696	205.20
4.6965	205.47
4.697	205.70
4.6975	205.92
4.698	206.14
4.6985	206.37
4.699	206.59
4.6995	206.76
4.7	207.03
4.7005	207.20
4.701	207.48
4.7015	207.98
4.702	208.26
4.7025	208.54
4.703	208.76
4.7035	208.93
4.704	209.15
4.7045	209.26
4.705	209.43
4.7055	209.60
4.706	209.71
4.7065	209.82
4.707	209.93
4.7075	210.10
4.708	210.16
4.7085	210.27
4.709	210.38
4.7095	210.43
4.71	210.55
4.7105	210.66
4.711	210.77
4.7115	211.33
4.712	211.83
4.7125	211.94
4.713	212.27
4.7135	212.55
4.714	212.61
4.7145	212.61
4.715	212.66
4.7155	212.61
4.716	212.61
4.7165	212.55
4.717	212.50
4.7175	212.50
4.718	212.44
4.7185	212.38
4.719	212.33
4.7195	212.27
4.72	212.16
4.7205	212.05
4.721	212.16
4.7215	212.27
4.722	212.22
4.7225	212.16
4.723	212.05
4.7235	211.99
4.724	211.83
4.7245	211.66
4.725	211.44
4.7255	211.27
4.726	211.05
4.7265	210.88
4.727	210.66
4.7275	210.38
4.728	210.16
4.7285	209.88
4.729	209.65
4.7295	209.32
4.73	209.10
4.7305	208.76
4.731	208.65
4.7315	208.99
4.732	208.87
4.7325	208.59
4.733	208.65
4.7335	208.37
4.734	208.04
4.7345	207.70
4.735	207.31
4.7355	206.98
4.736	206.53
4.7365	206.14
4.737	205.75
4.7375	205.31
4.738	204.86
4.7385	204.47
4.739	204.08
4.7395	203.63
4.74	203.19
4.7405	202.80
4.741	202.63
4.7415	202.35
4.742	201.96
4.7425	201.57
4.743	201.13
4.7435	200.74
4.744	200.18
4.7445	199.73
4.745	199.29
4.7455	198.79
4.746	198.34
4.7465	197.84
4.747	197.39
4.7475	196.95
4.748	196.39
4.7485	195.94
4.749	195.50
4.7495	195.05
4.75	194.61
4.7505	194.22
4.751	194.22
4.7515	194.33
4.752	194.05
4.7525	193.88
4.753	193.77
4.7535	193.38
4.754	193.05
4.7545	192.77
4.755	192.54
4.7555	192.26
4.756	191.99
4.7565	191.76
4.757	191.54
4.7575	191.37
4.758	191.21
4.7585	191.09
4.759	190.93
4.7595	190.76
4.76	190.65
4.7605	190.70
4.761	190.87
4.7615	190.98
4.762	190.98
4.7625	190.93
4.763	190.93
4.7635	190.98
4.764	190.93
4.7645	190.98
4.765	191.04
4.7655	190.98
4.766	191.09
4.7665	191.09
4.767	191.15
4.7675	191.21
4.768	191.26
4.7685	191.37
4.769	191.43
4.7695	191.54
4.77	191.65
4.7705	191.71
4.771	191.93
4.7715	192.38
4.772	192.93
4.7725	193.10
4.773	193.38
4.7735	193.77
4.774	193.83
4.7745	193.88
4.775	194.05
4.7755	194.16
4.776	194.27
4.7765	194.38
4.777	194.55
4.7775	194.72
4.778	194.83
4.7785	194.94
4.779	195.11
4.7795	195.22
4.78	195.39
4.7805	195.50
4.781	195.72
4.7815	196.17
4.782	196.39
4.7825	196.56
4.783	196.78
4.7835	196.84
4.784	197.00
4.7845	197.11
4.785	197.28
4.7855	197.45
4.786	197.56
4.7865	197.73
4.787	197.89
4.7875	198.01
4.788	198.12
4.7885	198.28
4.789	198.40
4.7895	198.51
4.79	198.67
4.7905	198.79
4.791	199.06
4.7915	199.57
4.792	200.18
4.7925	200.29
4.793	200.68
4.7935	201.13
4.794	201.13
4.7945	201.24
4.795	201.35
4.7955	201.46
4.796	201.57
4.7965	201.68
4.797	201.80
4.7975	201.85
4.798	201.91
4.7985	202.02
4.799	202.07
4.7995	202.13
4.8	202.13
4.8005	202.13
4.801	202.30
4.8015	202.63
4.802	202.74
4.8025	202.74
4.803	202.74
4.8035	202.69
4.804	202.63
4.8045	202.58
4.805	202.52
4.8055	202.52
4.806	202.46
4.8065	202.35
4.807	202.30
4.8075	202.19
4.808	202.13
4.8085	202.02
4.809	201.91
4.8095	201.74
4.81	201.63
4.8105	201.46
4.811	201.41
4.8115	201.74
4.812	201.96
4.8125	201.74
4.813	201.85
4.8135	201.96
4.814	201.63
4.8145	201.35
4.815	201.18
4.8155	200.90
4.816	200.68
4.8165	200.46
4.817	200.23
4.8175	199.96
4.818	199.68
4.8185	199.40
4.819	199.06
4.8195	198.79
4.82	198.45
4.8205	198.12
4.821	198.06
4.8215	197.95
4.822	197.67
4.8225	197.39
4.823	197.06
4.8235	196.61
4.824	196.28
4.8245	195.89
4.825	195.50
4.8255	195.16
4.826	194.77
4.8265	194.33
4.827	193.94
4.8275	193.55
4.828	193.16
4.8285	192.82
4.829	192.43
4.8295	192.04
4.83	191.71
4.8305	191.37
4.831	191.21
4.8315	191.37
4.832	191.32
4.8325	191.09
4.833	191.15
4.8335	190.93
4.834	190.48
4.8345	190.26
4.835	189.98
4.8355	189.76
4.836	189.53
4.8365	189.31
4.837	189.09
4.8375	188.98
4.838	188.70
4.8385	188.53
4.839	188.36
4.8395	188.14
4.84	187.97
4.8405	187.86
4.841	187.86
4.8415	187.86
4.842	187.75
4.8425	187.69
4.843	187.53
4.8435	187.36
4.844	187.25
4.8445	187.14
4.845	187.03
4.8455	186.86
4.846	186.75
4.8465	186.69
4.847	186.52
4.8475	186.47
4.848	186.41
4.8485	186.30
4.849	186.25
4.8495	186.19
4.85	186.13
4.8505	186.13
4.851	186.30
4.8515	186.80
4.852	186.86
4.8525	186.91
4.853	187.36
4.8535	187.25
4.854	187.14
4.8545	187.19
4.855	187.19
4.8555	187.19
4.856	187.19
4.8565	187.19
4.857	187.19
4.8575	187.25
4.858	187.25
4.8585	187.30
4.859	187.30
4.8595	187.30
4.86	187.30
4.8605	187.36
4.861	187.64
4.8615	187.81
4.862	187.81
4.8625	187.81
4.863	187.75
4.8635	187.75
4.864	187.81
4.8645	187.81
4.865	187.86
4.8655	187.86
4.866	187.86
4.8665	187.92
4.867	187.92
4.8675	187.97
4.868	188.03
4.8685	188.08
4.869	188.20
4.8695	188.25
4.87	188.36
4.8705	188.53
4.871	188.92
4.8715	189.48
4.872	189.65
4.8725	189.92
4.873	190.43
4.8735	190.43
4.874	190.43
4.8745	190.59
4.875	190.70
4.8755	190.87
4.876	190.98
4.8765	191.09
4.877	191.26
4.8775	191.32
4.878	191.43
4.8785	191.60
4.879	191.76
4.8795	191.87
4.88	191.99
4.8805	192.21
4.881	192.54
4.8815	192.71
4.882	192.88
4.8825	192.99
4.883	192.99
4.8835	193.05
4.884	193.16
4.8845	193.27
4.885	193.32
4.8855	193.38
4.886	193.38
4.8865	193.44
4.887	193.49
4.8875	193.49
4.888	193.55
4.8885	193.55
4.889	193.49
4.8895	193.55
4.89	193.49
4.8905	193.55
4.891	193.88
4.8915	194.27
4.892	194.22
4.8925	194.44
4.893	194.66
4.8935	194.38
4.894	194.33
4.8945	194.27
4.895	194.10
4.8955	194.05
4.896	193.94
4.8965	193.83
4.897	193.66
4.8975	193.55
4.898	193.44
4.8985	193.32
4.899	193.10
4.8995	192.99
4.9	192.82
4.9005	192.77
4.901	192.82
4.9015	192.65
4.902	192.54
4.9025	192.32
4.903	192.10
4.9035	191.93
4.904	191.76
4.9045	191.60
4.905	191.37
4.9055	191.15
4.906	190.93
4.9065	190.70
4.907	190.48
4.9075	190.26
4.908	190.04
4.9085	189.76
4.909	189.53
4.9095	189.31
4.91	189.03
4.9105	188.75
4.911	188.64
4.9115	188.81
4.912	188.81
4.9125	188.53
4.913	188.53
4.9135	188.59
4.914	188.14
4.9145	187.86
4.915	187.53
4.9155	187.19
4.916	186.97
4.9165	186.69
4.917	186.41
4.9175	186.13
4.918	185.86
4.9185	185.58
4.919	185.30
4.9195	185.08
4.92	184.85
4.9205	184.63
4.921	184.46
4.9215	184.46
4.922	184.35
4.9225	184.18
4.923	183.96
4.9235	183.68
4.924	183.57
4.9245	183.35
4.925	183.18
4.9255	183.12
4.926	182.96
4.9265	182.85
4.927	182.79
4.9275	182.68
4.928	182.62
4.9285	182.51
4.929	182.51
4.9295	182.46
4.93	182.40
4.9305	182.40
4.931	182.40
4.9315	182.46
4.932	182.79
4.9325	183.18
4.933	183.29
4.9335	183.46
4.934	183.79
4.9345	183.74
4.935	183.68
4.9355	183.74
4.936	183.79
4.9365	183.79
4.937	183.85
4.9375	183.90
4.938	183.90
4.9385	184.02
4.939	184.02
4.9395	184.07
4.94	184.13
4.9405	184.18
4.941	184.29
4.9415	184.41
4.942	184.74
4.9425	184.96
4.943	185.13
4.9435	185.24
4.944	185.24
4.9445	185.35
4.945	185.47
4.9455	185.58
4.946	185.69
4.9465	185.80
4.947	185.91
4.9475	186.08
4.948	186.25
4.9485	186.36
4.949	186.47
4.9495	186.58
4.95	186.69
4.9505	186.86
4.951	186.97
4.9515	187.14
4.952	187.30
4.9525	187.58
4.953	188.14
4.9535	188.53
4.954	188.70
4.9545	189.09
4.955	189.26
4.9555	189.26
4.956	189.42
4.9565	189.48
4.957	189.65
4.9575	189.70
4.958	189.81
4.9585	189.92
4.959	190.04
4.9595	190.15
4.96	190.26
4.9605	190.31
4.961	190.43
4.9615	190.54
4.962	190.65
4.9625	190.93
4.963	191.15
4.9635	191.26
4.964	191.43
4.9645	191.37
4.965	191.37
4.9655	191.48
4.966	191.48
4.9665	191.54
4.967	191.60
4.9675	191.60
4.968	191.60
4.9685	191.71
4.969	191.65
4.9695	191.65
4.97	191.60
4.9705	191.60
4.971	191.54
4.9715	191.48
4.972	191.48
4.9725	191.43
4.973	191.48
4.9735	191.71
4.974	191.99
4.9745	191.99
4.975	192.15
4.9755	192.21
4.976	191.93
4.9765	191.87
4.977	191.71
4.9775	191.60
4.978	191.48
4.9785	191.32
4.979	191.21
4.9795	191.04
4.98	190.93
4.9805	190.76
4.981	190.59
4.9815	190.43
4.982	190.26
4.9825	190.09
4.983	190.04
4.9835	190.15
4.984	190.09
4.9845	189.92
4.985	189.76
4.9855	189.53
4.986	189.31
4.9865	189.14
4.987	188.98
4.9875	188.81
4.988	188.64
4.9885	188.47
4.989	188.36
4.9895	188.20
4.99	188.03
4.9905	187.86
4.991	187.64
4.9915	187.53
4.992	187.30
4.9925	187.14
4.993	187.14
4.9935	187.30
4.994	187.42
4.9945	187.25
4.995	187.42
4.9955	187.30
4.996	187.03
4.9965	186.91
4.997	186.69
4.9975	186.58
4.998	186.41
4.9985	186.30
4.999	186.19
4.9995	186.08
5	185.97
5.0005	185.86
5.001	185.80
5.0015	185.69
5.002	185.63
5.0025	185.58
5.003	185.69
5.0035	185.86
5.004	185.91
5.0045	185.91
5.005	185.86
5.0055	185.80
5.006	185.80
5.0065	185.80
5.007	185.86
5.0075	185.86
5.008	185.91
5.0085	185.91
5.009	185.97
5.0095	186.08
5.01	186.13
5.0105	186.19
5.011	186.25
5.0115	186.36
5.012	186.41
5.0125	186.52
5.013	186.75
5.0135	187.19
5.014	187.53
5.0145	187.58
5.015	187.92
5.0155	188.03
5.016	187.92
5.0165	188.03
5.017	188.08
5.0175	188.08
5.018	188.14
5.0185	188.14
5.019	188.20
5.0195	188.25
5.02	188.20
5.0205	188.25
5.021	188.31
5.0215	188.31
5.022	188.31
5.0225	188.31
5.023	188.53
5.0235	188.75
5.024	188.75
5.0245	188.81
5.025	188.75
5.0255	188.64
5.026	188.64
5.0265	188.59
5.027	188.59
5.0275	188.53
5.028	188.47
5.0285	188.42
5.029	188.36
5.0295	188.31
5.03	188.31
5.0305	188.25
5.031	188.20
5.0315	188.14
5.032	188.14
5.0325	188.14
5.033	188.08
5.0335	188.20
5.034	188.47
5.0345	188.70
5.035	188.75
5.0355	188.98
5.036	189.03
5.0365	188.87
5.037	188.87
5.0375	188.81
5.038	188.81
5.0385	188.75
5.039	188.70
5.0395	188.70
5.04	188.64
5.0405	188.59
5.041	188.53
5.0415	188.47
5.042	188.47
5.0425	188.36
5.043	188.31
5.0435	188.47
5.044	188.64
5.0445	188.59
5.045	188.53
5.0455	188.36
5.046	188.25
5.0465	188.20
5.047	188.08
5.0475	187.97
5.048	187.92
5.0485	187.75
5.049	187.64
5.0495	187.53
5.05	187.36
5.0505	187.19
5.051	187.08
5.0515	186.97
5.052	186.80
5.0525	186.69
5.053	186.47
5.0535	186.47
5.054	186.69
5.0545	186.64
5.055	186.52
5.0555	186.64
5.056	186.36
5.0565	186.13
5.057	185.97
5.0575	185.74
5.058	185.52
5.0585	185.30
5.059	185.13
5.0595	184.91
5.06	184.68
5.0605	184.46
5.061	184.24
5.0615	184.02
5.062	183.85
5.0625	183.63
5.063	183.46
5.0635	183.46
5.064	183.46
5.0645	183.29
5.065	183.01
5.0655	182.73
5.066	182.57
5.0665	182.34
5.067	182.18
5.0675	181.95
5.068	181.79
5.0685	181.62
5.069	181.40
5.0695	181.29
5.07	181.12
5.0705	180.95
5.071	180.84
5.0715	180.78
5.072	180.67
5.0725	180.56
5.073	180.56
5.0735	180.73
5.074	181.01
5.0745	181.06
5.075	181.17
5.0755	181.40
5.076	181.29
5.0765	181.29
5.077	181.29
5.0775	181.34
5.078	181.40
5.0785	181.45
5.079	181.56
5.0795	181.68
5.08	181.79
5.0805	181.90
5.081	182.01
5.0815	182.12
5.082	182.29
5.0825	182.40
5.083	182.73
5.0835	183.18
5.084	183.40
5.0845	183.63
5.085	183.74
5.0855	183.85
5.086	184.02
5.0865	184.18
5.087	184.29
5.0875	184.46
5.088	184.57
5.0885	184.74
5.089	184.85
5.0895	185.02
5.09	185.13
5.0905	185.30
5.091	185.47
5.0915	185.58
5.092	185.74
5.0925	185.80
5.093	186.08
5.0935	186.47
5.094	186.86
5.0945	187.03
5.095	187.36
5.0955	187.64
5.096	187.58
5.0965	187.69
5.097	187.81
5.0975	187.92
5.098	188.03
5.0985	188.20
5.099	188.31
5.0995	188.47
5.1	188.53
5.1005	188.64
5.101	188.75
5.1015	188.87
5.102	188.98
5.1025	189.14
5.103	189.48
5.1035	189.81
5.104	189.98
5.1045	190.15
5.105	190.20
5.1055	190.26
5.106	190.43
5.1065	190.59
5.107	190.65
5.1075	190.76
5.108	190.93
5.1085	191.04
5.109	191.09
5.1095	191.21
5.11	191.32
5.1105	191.43
5.111	191.48
5.1115	191.60
5.112	191.65
5.1125	191.76
5.113	191.82
5.1135	192.04
5.114	192.43
5.1145	192.71
5.115	192.82
5.1155	193.16
5.116	193.21
5.1165	193.16
5.117	193.16
5.1175	193.21
5.118	193.21
5.1185	193.16
5.119	193.21
5.1195	193.16
5.12	193.16
5.1205	193.10
5.121	193.10
5.1215	193.10
5.122	192.99
5.1225	192.93
5.123	192.88
5.1235	193.16
5.124	193.27
5.1245	193.16
5.125	193.10
5.1255	192.88
5.126	192.77
5.1265	192.65
5.127	192.49
5.1275	192.38
5.128	192.21
5.1285	192.04
5.129	191.87
5.1295	191.65
5.13	191.48
5.1305	191.26
5.131	191.04
5.1315	190.82
5.132	190.59
5.1325	190.43
5.133	190.26
5.1335	190.26
5.134	190.37
5.1345	190.20
5.135	190.09
5.1355	190.04
5.136	189.65
5.1365	189.31
5.137	189.09
5.1375	188.75
5.138	188.47
5.1385	188.08
5.139	187.81
5.1395	187.53
5.14	187.19
5.1405	186.86
5.141	186.52
5.1415	186.25
5.142	185.97
5.1425	185.58
5.143	185.41
5.1435	185.41
5.144	185.19
5.1445	184.91
5.145	184.52
5.1455	184.18
5.146	183.90
5.1465	183.57
5.147	183.29
5.1475	183.07
5.148	182.73
5.1485	182.40
5.149	182.18
5.1495	181.95
5.15	181.73
5.1505	181.51
5.151	181.23
5.1515	181.06
5.152	180.84
5.1525	180.67
5.153	180.62
5.1535	180.67
5.154	180.67
5.1545	180.56
5.155	180.67
5.1555	180.62
5.156	180.34
5.1565	180.28
5.157	180.17
5.1575	180.06
5.158	180.00
5.1585	180.00
5.159	179.95
5.1595	179.89
5.16	179.89
5.1605	179.89
5.161	179.89
5.1615	179.95
5.162	179.95
5.1625	180.00
5.163	180.34
5.1635	180.67
5.164	180.84
5.1645	180.95
5.165	181.01
5.1655	181.17
5.166	181.29
5.1665	181.45
5.167	181.62
5.1675	181.79
5.168	182.01
5.1685	182.18
5.169	182.34
5.1695	182.51
5.17	182.68
5.1705	182.85
5.171	183.07
5.1715	183.24
5.172	183.40
5.1725	183.68
5.173	184.13
5.1735	184.52
5.174	184.74
5.1745	185.08
5.175	185.47
5.1755	185.63
5.176	185.69
5.1765	185.91
5.177	186.02
5.1775	186.19
5.178	186.30
5.1785	186.47
5.179	186.64
5.1795	186.69
5.18	186.86
5.1805	186.97
5.181	187.03
5.1815	187.14
5.182	187.25
5.1825	187.47
5.183	187.86
5.1835	188.03
5.184	188.14
5.1845	188.20
5.185	188.20
5.1855	188.25
5.186	188.36
5.1865	188.42
5.187	188.47
5.1875	188.47
5.188	188.53
5.1885	188.53
5.189	188.59
5.1895	188.59
5.19	188.64
5.1905	188.64
5.191	188.64
5.1915	188.64
5.192	188.64
5.1925	188.75
5.193	189.03
5.1935	189.14
5.194	189.26
5.1945	189.48
5.195	189.53
5.1955	189.37
5.196	189.31
5.1965	189.26
5.197	189.20
5.1975	189.14
5.198	189.09
5.1985	189.03
5.199	188.92
5.1995	188.87
5.2	188.75
5.2005	188.70
5.201	188.53
5.2015	188.47
5.202	188.36
5.2025	188.53
5.203	188.64
5.2035	188.59
5.204	188.42
5.2045	188.25
5.205	188.08
5.2055	187.92
5.206	187.81
5.2065	187.69
5.207	187.53
5.2075	187.36
5.208	187.19
5.2085	186.97
5.209	186.86
5.2095	186.69
5.21	186.47
5.2105	186.30
5.211	186.13
5.2115	185.97
5.212	185.74
5.2125	185.58
5.213	185.58
5.2135	185.58
5.214	185.52
5.2145	185.47
5.215	185.47
5.2155	185.24
5.216	184.91
5.2165	184.68
5.217	184.41
5.2175	184.18
5.218	183.90
5.2185	183.68
5.219	183.40
5.2195	183.12
5.22	182.90
5.2205	182.68
5.221	182.40
5.2215	182.18
5.222	181.95
5.2225	181.73
5.223	181.79
5.2235	181.79
5.224	181.62
5.2245	181.45
5.225	181.23
5.2255	181.06
5.226	180.90
5.2265	180.73
5.227	180.62
5.2275	180.50
5.228	180.45
5.2285	180.34
5.229	180.23
5.2295	180.17
5.23	180.11
5.2305	180.11
5.231	180.06
5.2315	180.00
5.232	180.00
5.2325	180.06
5.233	180.28
5.2335	180.45
5.234	180.45
5.2345	180.67
5.235	180.84
5.2355	180.73
5.236	180.73
5.2365	180.78
5.237	180.78
5.2375	180.78
5.238	180.84
5.2385	180.84
5.239	180.84
5.2395	180.84
5.24	180.90
5.2405	180.90
5.241	180.90
5.2415	180.95
5.242	180.95
5.2425	181.12
5.243	181.40
5.2435	181.51
5.244	181.56
5.2445	181.56
5.245	181.51
5.2455	181.51
5.246	181.51
5.2465	181.51
5.247	181.56
5.2475	181.56
5.248	181.56
5.2485	181.56
5.249	181.56
5.2495	181.62
5.25	181.51
5.2505	181.56
5.251	181.56
5.2515	181.56
5.252	181.56
5.2525	181.56
5.253	181.68
5.2535	181.90
5.254	182.01
5.2545	182.01
5.255	182.23
5.2555	182.34
5.256	182.23
5.2565	182.18
5.257	182.18
5.2575	182.12
5.258	182.07
5.2585	182.07
5.259	182.01
5.2595	181.95
5.26	181.90
5.2605	181.84
5.261	181.79
5.2615	181.79
5.262	181.73
5.2625	181.62
5.263	181.79
5.2635	181.95
5.264	182.01
5.2645	181.95
5.265	181.90
5.2655	181.79
5.266	181.73
5.2665	181.73
5.267	181.68
5.2675	181.62
5.268	181.56
5.2685	181.56
5.269	181.56
5.2695	181.51
5.27	181.45
5.2705	181.45
5.271	181.40
5.2715	181.40
5.272	181.40
5.2725	181.40
5.273	181.56
5.2735	181.79
5.274	181.79
5.2745	181.90
5.275	182.18
5.2755	182.07
5.276	181.95
5.2765	182.01
5.277	181.95
5.2775	181.90
5.278	181.90
5.2785	181.90
5.279	181.84
5.2795	181.79
5.28	181.73
5.2805	181.68
5.281	181.62
5.2815	181.56
5.282	181.45
5.2825	181.51
5.283	181.68
5.2835	181.68
5.284	181.68
5.2845	181.56
5.285	181.40
5.2855	181.29
5.286	181.17
5.2865	181.06
5.287	180.90
5.2875	180.78
5.288	180.67
5.2885	180.50
5.289	180.34
5.2895	180.23
5.29	180.11
5.2905	179.95
5.291	179.78
5.2915	179.61
5.292	179.45
5.2925	179.39
5.293	179.45
5.2935	179.39
5.294	179.28
5.2945	179.33
5.295	179.28
5.2955	178.94
5.296	178.78
5.2965	178.67
5.297	178.50
5.2975	178.28
5.298	178.11
5.2985	177.94
5.299	177.72
5.2995	177.55
5.3	177.38
5.3005	177.27
5.301	177.11
5.3015	176.94
5.302	176.77
5.3025	176.77
5.303	176.88
5.3035	176.77
5.304	176.66
5.3045	176.55
5.305	176.32
5.3055	176.21
5.306	176.16
5.3065	175.99
5.307	175.93
5.3075	175.82
5.308	175.77
5.3085	175.71
5.309	175.60
5.3095	175.60
5.31	175.54
5.3105	175.49
5.311	175.49
5.3115	175.49
5.312	175.49
5.3125	175.43
5.313	175.66
5.3135	175.88
5.314	175.99
5.3145	176.10
5.315	176.38
5.3155	176.49
5.316	176.44
5.3165	176.55
5.317	176.60
5.3175	176.71
5.318	176.83
5.3185	176.88
5.319	176.94
5.3195	176.99
5.32	177.11
5.3205	177.22
5.321	177.27
5.3215	177.33
5.322	177.44
5.3225	177.55
5.323	177.83
5.3235	178.11
5.324	178.22
5.3245	178.33
5.325	178.33
5.3255	178.39
5.326	178.44
5.3265	178.55
5.327	178.55
5.3275	178.67
5.328	178.72
5.3285	178.78
5.329	178.78
5.3295	178.83
5.33	178.89
5.3305	178.89
5.331	178.94
5.3315	178.94
5.332	178.94
5.3325	179.00
5.333	179.00
5.3335	179.17
5.334	179.39
5.3345	179.50
5.335	179.50
5.3355	179.78
5.336	179.84
5.3365	179.72
5.337	179.84
5.3375	179.78
5.338	179.78
5.3385	179.84
5.339	179.89
5.3395	179.84
5.34	179.89
5.3405	179.95
5.341	179.89
5.3415	179.95
5.342	180.00
5.3425	180.06
5.343	180.06
5.3435	180.34
5.344	180.56
5.3445	180.50
5.345	180.62
5.3455	180.50
5.346	180.50
5.3465	180.62
5.347	180.56
5.3475	180.56
5.348	180.56
5.3485	180.56
5.349	180.56
5.3495	180.50
5.35	180.56
5.3505	180.50
5.351	180.50
5.3515	180.50
5.352	180.45
5.3525	180.45
5.353	180.34
5.3535	180.34
5.354	180.39
5.3545	180.62
5.355	180.62
5.3555	180.62
5.356	180.78
5.3565	180.67
5.357	180.50
5.3575	180.45
5.358	180.39
5.3585	180.34
5.359	180.23
5.3595	180.11
5.36	180.00
5.3605	179.89
5.361	179.84
5.3615	179.67
5.362	179.56
5.3625	179.50
5.363	179.33
5.3635	179.22
5.364	179.33
5.3645	179.39
5.365	179.28
5.3655	179.17
5.366	178.94
5.3665	178.78
5.367	178.61
5.3675	178.44
5.368	178.28
5.3685	178.16
5.369	178.00
5.3695	177.77
5.37	177.61
5.3705	177.50
5.371	177.27
5.3715	177.11
5.372	176.94
5.3725	176.77
5.373	176.60
5.3735	176.38
5.374	176.21
5.3745	176.27
5.375	176.27
5.3755	176.10
5.376	175.99
5.3765	176.05
5.377	175.88
5.3775	175.60
5.378	175.43
5.3785	175.27
5.379	175.10
5.3795	174.88
5.38	174.71
5.3805	174.54
5.381	174.43
5.3815	174.26
5.382	174.10
5.3825	173.93
5.383	173.76
5.3835	173.54
5.384	173.43
5.3845	173.54
5.385	173.48
5.3855	173.32
5.386	173.20
5.3865	173.04
5.387	172.87
5.3875	172.70
5.388	172.65
5.3885	172.48
5.389	172.37
5.3895	172.26
5.39	172.09
5.3905	172.03
5.391	171.98
5.3915	171.87
5.392	171.81
5.3925	171.64
5.393	171.53
5.3935	171.53
5.394	171.48
5.3945	171.36
5.395	171.53
5.3955	171.64
5.396	171.59
5.3965	171.64
5.397	171.81
5.3975	171.70
5.398	171.59
5.3985	171.53
5.399	171.48
5.3995	171.48
5.4	171.42
5.4005	171.42
5.401	171.31
5.4015	171.31
5.402	171.31
5.4025	171.20
5.403	171.20
5.4035	171.14
5.404	171.03
5.4045	171.14
5.405	171.36
5.4055	171.36
5.406	171.36
5.4065	171.31
5.407	171.25
5.4075	171.25
5.408	171.25
5.4085	171.25
5.409	171.20
5.4095	171.25
5.41	171.25
5.4105	171.31
5.411	171.36
5.4115	171.42
5.412	171.48
5.4125	171.53
5.413	171.59
5.4135	171.64
5.414	171.70
5.4145	171.98
5.415	172.31
5.4155	172.48
5.416	172.65
5.4165	173.04
5.417	173.20
5.4175	173.20
5.418	173.48
5.4185	173.54
5.419	173.71
5.4195	173.87
5.42	173.98
5.4205	174.21
5.421	174.26
5.4215	174.43
5.422	174.60
5.4225	174.71
5.423	174.88
5.4235	174.99
5.424	175.10
5.4245	175.43
5.425	175.71
5.4255	175.88
5.426	176.05
5.4265	175.99
5.427	176.16
5.4275	176.27
5.428	176.38
5.4285	176.49
5.429	176.55
5.4295	176.66
5.43	176.71
5.4305	176.83
5.431	176.88
5.4315	176.99
5.432	177.05
5.4325	177.11
5.433	177.16
5.4335	177.16
5.434	177.33
5.4345	177.61
5.435	177.83
5.4355	177.83
5.436	178.00
5.4365	178.22
5.437	178.11
5.4375	178.05
5.438	178.16
5.4385	178.11
5.439	178.16
5.4395	178.11
5.44	178.11
5.4405	178.11
5.441	178.05
5.4415	178.05
5.442	178.00
5.4425	178.00
5.443	177.89
5.4435	177.77
5.444	177.89
5.4445	178.11
5.445	178.05
5.4455	178.00
5.446	177.94
5.4465	177.83
5.447	177.77
5.4475	177.66
5.448	177.55
5.4485	177.50
5.449	177.38
5.4495	177.27
5.45	177.16
5.4505	177.05
5.451	176.94
5.4515	176.83
5.452	176.71
5.4525	176.66
5.453	176.44
5.4535	176.32
5.454	176.21
5.4545	176.16
5.455	176.27
5.4555	176.21
5.456	176.05
5.4565	176.10
5.457	175.99
5.4575	175.71
5.458	175.54
5.4585	175.38
5.459	175.15
5.4595	174.99
5.46	174.76
5.4605	174.60
5.461	174.37
5.4615	174.21
5.462	173.98
5.4625	173.76
5.463	173.54
5.4635	173.32
5.464	173.09
5.4645	173.15
5.465	173.04
5.4655	172.81
5.466	172.65
5.4665	172.31
5.467	172.09
5.4675	171.87
5.468	171.59
5.4685	171.36
5.469	171.14
5.4695	170.92
5.47	170.70
5.4705	170.47
5.471	170.25
5.4715	170.08
5.472	169.86
5.4725	169.64
5.473	169.41
5.4735	169.19
5.474	169.02
5.4745	169.02
5.475	168.97
5.4755	168.80
5.476	168.74
5.4765	168.69
5.477	168.47
5.4775	168.30
5.478	168.13
5.4785	167.96
5.479	167.80
5.4795	167.63
5.48	167.52
5.4805	167.41
5.481	167.30
5.4815	167.18
5.482	167.07
5.4825	166.96
5.483	166.85
5.4835	166.74
5.484	166.85
5.4845	167.02
5.485	166.91
5.4855	166.91
5.486	166.79
5.4865	166.68
5.487	166.68
5.4875	166.63
5.488	166.57
5.4885	166.57
5.489	166.52
5.4895	166.52
5.49	166.52
5.4905	166.46
5.491	166.52
5.4915	166.46
5.492	166.46
5.4925	166.52
5.493	166.52
5.4935	166.46
5.494	166.63
5.4945	166.79
5.495	166.79
5.4955	166.91
5.496	167.13
5.4965	167.13
5.497	167.07
5.4975	167.18
5.498	167.13
5.4985	167.18
5.499	167.24
5.4995	167.24
5.5	167.24
5.5005	167.35
5.501	167.35
5.5015	167.41
5.502	167.46
5.5025	167.52
5.503	167.57
5.5035	167.74
5.504	168.08
5.5045	168.13
5.505	168.24
5.5055	168.30
5.506	168.30
5.5065	168.41
5.507	168.47
5.5075	168.58
5.508	168.63
5.5085	168.69
5.509	168.74
5.5095	168.86
5.51	168.86
5.5105	168.97
5.511	169.08
5.5115	169.08
5.512	169.19
5.5125	169.25
5.513	169.30
5.5135	169.30
5.514	169.41
5.5145	169.69
5.515	169.86
5.5155	169.92
5.516	170.14
5.5165	170.25
5.517	170.25
5.5175	170.31
5.518	170.36
5.5185	170.36
5.519	170.47
5.5195	170.47
5.52	170.47
5.5205	170.58
5.521	170.64
5.5215	170.64
5.522	170.70
5.5225	170.75
5.523	170.70
5.5235	170.75
5.524	171.03
5.5245	171.25
5.525	171.31
5.5255	171.36
5.526	171.36
5.5265	171.31
5.527	171.36
5.5275	171.36
5.528	171.36
5.5285	171.42
5.529	171.36
5.5295	171.42
5.53	171.36
5.5305	171.36
5.531	171.36
5.5315	171.36
5.532	171.31
5.5325	171.36
5.533	171.31
5.5335	171.20
5.534	171.31
5.5345	171.48
5.535	171.42
5.5355	171.48
5.536	171.59
5.5365	171.48
5.537	171.42
5.5375	171.31
5.538	171.31
5.5385	171.25
5.539	171.14
5.5395	171.09
5.54	170.97
5.5405	170.92
5.541	170.92
5.5415	170.81
5.542	170.75
5.5425	170.70
5.543	170.53
5.5435	170.58
5.544	170.75
5.5445	170.70
5.545	170.64
5.5455	170.53
5.546	170.36
5.5465	170.25
5.547	170.19
5.5475	170.08
5.548	169.97
5.5485	169.92
5.549	169.80
5.5495	169.75
5.55	169.64
5.5505	169.47
5.551	169.41
5.5515	169.30
5.552	169.25
5.5525	169.08
5.553	168.97
5.5535	169.02
5.554	169.08
5.5545	169.08
5.555	169.02
5.5555	169.14
5.556	169.02
5.5565	168.86
5.557	168.80
5.5575	168.69
5.558	168.58
5.5585	168.58
5.559	168.47
5.5595	168.41
5.56	168.41
5.5605	168.30
5.561	168.30
5.5615	168.24
5.562	168.19
5.5625	168.13
5.563	168.19
5.5635	168.41
5.564	168.47
5.5645	168.41
5.565	168.41
5.5655	168.30
5.566	168.30
5.5665	168.30
5.567	168.30
5.5675	168.30
5.568	168.30
5.5685	168.30
5.569	168.35
5.5695	168.35
5.57	168.35
5.5705	168.41
5.571	168.41
5.5715	168.52
5.572	168.58
5.5725	168.52
5.573	168.69
5.5735	168.97
5.574	169.08
5.5745	169.14
5.575	169.41
5.5755	169.64
5.576	169.64
5.5765	169.69
5.577	169.86
5.5775	169.97
5.578	170.08
5.5785	170.19
5.579	170.36
5.5795	170.47
5.58	170.64
5.5805	170.86
5.581	171.03
5.5815	171.20
5.582	171.36
5.5825	171.53
5.583	171.92
5.5835	172.26
5.584	172.48
5.5845	172.65
5.585	172.76
5.5855	172.93
5.586	173.04
5.5865	173.26
5.587	173.43
5.5875	173.59
5.588	173.71
5.5885	173.87
5.589	174.04
5.5895	174.15
5.59	174.26
5.5905	174.43
5.591	174.54
5.5915	174.71
5.592	174.76
5.5925	174.88
5.593	175.15
5.5935	175.38
5.594	175.54
5.5945	175.82
5.595	176.05
5.5955	175.99
5.596	176.10
5.5965	176.21
5.597	176.27
5.5975	176.38
5.598	176.44
5.5985	176.49
5.599	176.55
5.5995	176.60
5.6	176.66
5.6005	176.71
5.601	176.71
5.6015	176.77
5.602	176.83
5.6025	177.05
5.603	177.27
5.6035	177.27
5.604	177.33
5.6045	177.33
5.605	177.27
5.6055	177.33
5.606	177.33
5.6065	177.33
5.607	177.33
5.6075	177.33
5.608	177.38
5.6085	177.33
5.609	177.33
5.6095	177.27
5.61	177.27
5.6105	177.33
5.611	177.22
5.6115	177.16
5.612	177.11
5.6125	177.27
5.613	177.38
5.6135	177.33
5.614	177.50
5.6145	177.55
5.615	177.44
5.6155	177.33
5.616	177.27
5.6165	177.22
5.617	177.11
5.6175	176.99
5.618	176.94
5.6185	176.83
5.619	176.71
5.6195	176.60
5.62	176.49
5.6205	176.38
5.621	176.16
5.6215	175.99
5.622	175.99
5.6225	175.99
5.623	175.93
5.6235	175.77
5.624	175.54
5.6245	175.38
5.625	175.15
5.6255	174.93
5.626	174.71
5.6265	174.49
5.627	174.32
5.6275	174.10
5.628	173.87
5.6285	173.65
5.629	173.43
5.6295	173.15
5.63	172.93
5.6305	172.70
5.631	172.42
5.6315	172.14
5.632	171.98
5.6325	171.92
5.633	171.70
5.6335	171.59
5.634	171.53
5.6345	171.31
5.635	170.92
5.6355	170.70
5.636	170.47
5.6365	170.14
5.637	169.86
5.6375	169.64
5.638	169.36
5.6385	169.08
5.639	168.86
5.6395	168.58
5.64	168.30
5.6405	168.08
5.641	167.85
5.6415	167.63
5.642	167.57
5.6425	167.52
5.643	167.30
5.6435	167.13
5.644	166.91
5.6445	166.74
5.645	166.57
5.6455	166.40
5.646	166.29
5.6465	166.18
5.647	166.01
5.6475	165.96
5.648	165.85
5.6485	165.74
5.649	165.68
5.6495	165.57
5.65	165.51
5.6505	165.51
5.651	165.40
5.6515	165.40
5.652	165.57
5.6525	165.62
5.653	165.68
5.6535	165.90
5.654	165.96
5.6545	165.90
5.655	165.90
5.6555	165.96
5.656	166.07
5.6565	166.18
5.657	166.24
5.6575	166.40
5.658	166.52
5.6585	166.63
5.659	166.74
5.6595	166.91
5.66	167.13
5.6605	167.30
5.661	167.46
5.6615	167.80
5.662	168.24
5.6625	168.52
5.663	168.80
5.6635	169.02
5.664	169.19
5.6645	169.53
5.665	169.75
5.6655	170.03
5.666	170.25
5.6665	170.53
5.667	170.81
5.6675	171.03
5.668	171.31
5.6685	171.59
5.669	171.81
5.6695	172.09
5.67	172.37
5.6705	172.53
5.671	172.76
5.6715	173.15
5.672	173.59
5.6725	173.82
5.673	174.21
5.6735	174.60
5.674	174.76
5.6745	174.88
5.675	175.15
5.6755	175.38
5.676	175.60
5.6765	175.82
5.677	175.99
5.6775	176.32
5.678	176.55
5.6785	176.71
5.679	176.94
5.6795	177.11
5.68	177.33
5.6805	177.50
5.681	177.77
5.6815	178.16
5.682	178.44
5.6825	178.67
5.683	178.83
5.6835	179.00
5.684	179.22
5.6845	179.33
5.685	179.50
5.6855	179.67
5.686	179.84
5.6865	180.00
5.687	180.06
5.6875	180.23
5.688	180.34
5.6885	180.39
5.689	180.56
5.6895	180.62
5.69	180.73
5.6905	180.84
5.691	180.78
5.6915	180.90
5.692	181.17
5.6925	181.34
5.693	181.40
5.6935	181.62
5.694	181.73
5.6945	181.68
5.695	181.68
5.6955	181.73
5.696	181.68
5.6965	181.68
5.697	181.73
5.6975	181.68
5.698	181.62
5.6985	181.62
5.699	181.51
5.6995	181.45
5.7	181.40
5.7005	181.34
5.701	181.23
5.7015	181.17
5.702	181.34
5.7025	181.29
5.703	181.17
5.7035	181.06
5.704	181.01
5.7045	180.95
5.705	180.73
5.7055	180.62
5.706	180.50
5.7065	180.34
5.707	180.17
5.7075	180.00
5.708	179.84
5.7085	179.61
5.709	179.50
5.7095	179.28
5.71	179.11
5.7105	178.89
5.711	178.61
5.7115	178.44
5.712	178.39
5.7125	178.28
5.713	178.11
5.7135	178.05
5.714	177.89
5.7145	177.55
5.715	177.33
5.7155	177.05
5.716	176.83
5.7165	176.55
5.717	176.32
5.7175	176.10
5.718	175.77
5.7185	175.54
5.719	175.32
5.7195	175.04
5.72	174.76
5.7205	174.49
5.721	174.21
5.7215	174.10
5.722	174.04
5.7225	173.82
5.723	173.54
5.7235	173.26
5.724	173.04
5.7245	172.81
5.725	172.53
5.7255	172.37
5.726	172.09
5.7265	171.92
5.727	171.70
5.7275	171.48
5.728	171.31
5.7285	171.09
5.729	170.86
5.7295	170.70
5.73	170.53
5.7305	170.36
5.731	170.25
5.7315	170.08
5.732	169.97
5.7325	170.08
5.733	169.92
5.7335	169.92
5.734	170.03
5.7345	169.92
5.735	169.75
5.7355	169.64
5.736	169.58
5.7365	169.53
5.737	169.47
5.7375	169.36
5.738	169.36
5.7385	169.25
5.739	169.19
5.7395	169.14
5.74	169.08
5.7405	169.02
5.741	168.97
5.7415	168.91
5.742	168.97
5.7425	169.14
5.743	169.14
5.7435	169.14
5.744	169.08
5.7445	168.97
5.745	168.97
5.7455	168.97
5.746	168.91
5.7465	168.91
5.747	168.86
5.7475	168.80
5.748	168.86
5.7485	168.86
5.749	168.80
5.7495	168.80
5.75	168.80
5.7505	168.74
5.751	168.80
5.7515	168.69
5.752	168.74
5.7525	168.97
5.753	169.02
5.7535	169.14
5.754	169.25
5.7545	169.14
5.755	169.14
5.7555	169.14
5.756	169.19
5.7565	169.25
5.757	169.30
5.7575	169.30
5.758	169.41
5.7585	169.47
5.759	169.58
5.7595	169.64
5.76	169.75
5.7605	169.92
5.761	169.97
5.7615	170.08
5.762	170.42
5.7625	170.64
5.763	170.81
5.7635	170.97
5.764	171.09
5.7645	171.25
5.765	171.36
5.7655	171.48
5.766	171.64
5.7665	171.75
5.767	171.92
5.7675	172.03
5.768	172.20
5.7685	172.37
5.769	172.48
5.7695	172.59
5.77	172.70
5.7705	172.87
5.771	172.98
5.7715	173.04
5.772	173.32
5.7725	173.59
5.773	173.71
5.7735	173.93
5.774	174.10
5.7745	174.21
5.775	174.21
5.7755	174.37
5.776	174.43
5.7765	174.54
5.777	174.60
5.7775	174.71
5.778	174.82
5.7785	174.88
5.779	174.88
5.7795	174.99
5.78	174.99
5.7805	175.04
5.781	175.10
5.7815	175.15
5.782	175.38
5.7825	175.49
5.783	175.54
5.7835	175.60
5.784	175.60
5.7845	175.60
5.785	175.54
5.7855	175.54
5.786	175.54
5.7865	175.49
5.787	175.54
5.7875	175.49
5.788	175.43
5.7885	175.43
5.789	175.38
5.7895	175.32
5.79	175.27
5.7905	175.21
5.791	175.10
5.7915	175.04
5.792	175.15
5.7925	175.15
5.793	175.10
5.7935	175.21
5.794	175.21
5.7945	175.04
5.795	174.99
5.7955	174.88
5.796	174.82
5.7965	174.65
5.797	174.54
5.7975	174.49
5.798	174.32
5.7985	174.21
5.799	174.10
5.7995	173.93
5.8	173.87
5.8005	173.71
5.801	173.54
5.8015	173.48
5.802	173.54
5.8025	173.48
5.803	173.37
5.8035	173.20
5.804	172.98
5.8045	172.76
5.805	172.65
5.8055	172.53
5.806	172.31
5.8065	172.26
5.807	172.09
5.8075	171.92
5.808	171.75
5.8085	171.64
5.809	171.42
5.8095	171.31
5.81	171.14
5.8105	170.92
5.811	170.86
5.8115	170.70
5.812	170.53
5.8125	170.53
5.813	170.47
5.8135	170.42
5.814	170.42
5.8145	170.36
5.815	170.19
5.8155	170.03
5.816	169.92
5.8165	169.80
5.817	169.75
5.8175	169.58
5.818	169.47
5.8185	169.41
5.819	169.30
5.8195	169.25
5.82	169.19
5.8205	169.08
5.821	169.02
5.8215	168.97
5.822	168.97
5.8225	169.08
5.823	169.14
5.8235	169.14
5.824	169.08
5.8245	169.08
5.825	169.08
5.8255	169.08
5.826	169.08
5.8265	169.14
5.827	169.14
5.8275	169.19
5.828	169.25
5.8285	169.25
5.829	169.36
5.8295	169.47
5.83	169.47
5.8305	169.53
5.831	169.64
5.8315	169.69
5.832	169.75
5.8325	170.03
5.833	170.19
5.8335	170.31
5.834	170.53
5.8345	170.64
5.835	170.75
5.8355	170.81
5.836	170.86
5.8365	170.97
5.837	171.09
5.8375	171.14
5.838	171.20
5.8385	171.31
5.839	171.42
5.8395	171.48
5.84	171.59
5.8405	171.64
5.841	171.70
5.8415	171.75
5.842	171.98
5.8425	172.26
5.843	172.37
5.8435	172.42
5.844	172.48
5.8445	172.53
5.845	172.65
5.8455	172.70
5.846	172.76
5.8465	172.87
5.847	172.98
5.8475	173.04
5.848	173.09
5.8485	173.20
5.849	173.26
5.8495	173.37
5.85	173.48
5.8505	173.48
5.851	173.59
5.8515	173.65
5.852	173.76
5.8525	174.04
5.853	174.15
5.8535	174.26
5.854	174.49
5.8545	174.60
5.855	174.65
5.8555	174.82
5.856	174.93
5.8565	174.99
5.857	175.04
5.8575	175.15
5.858	175.27
5.8585	175.38
5.859	175.49
5.8595	175.54
5.86	175.60
5.8605	175.71
5.861	175.82
5.8615	175.88
5.862	176.10
5.8625	176.32
5.863	176.38
5.8635	176.49
5.864	176.49
5.8645	176.55
5.865	176.60
5.8655	176.60
5.866	176.66
5.8665	176.66
5.867	176.71
5.8675	176.77
5.868	176.77
5.8685	176.71
5.869	176.71
5.8695	176.77
5.87	176.71
5.8705	176.71
5.871	176.77
5.8715	176.66
5.872	176.71
5.8725	176.83
5.873	176.77
5.8735	176.83
5.874	176.94
5.8745	176.94
5.875	176.77
5.8755	176.71
5.876	176.66
5.8765	176.55
5.877	176.49
5.8775	176.44
5.878	176.32
5.8785	176.27
5.879	176.16
5.8795	176.05
5.88	175.93
5.8805	175.88
5.881	175.71
5.8815	175.60
5.882	175.66
5.8825	175.66
5.883	175.49
5.8835	175.43
5.884	175.32
5.8845	175.21
5.885	175.04
5.8855	174.93
5.886	174.82
5.8865	174.60
5.887	174.54
5.8875	174.43
5.888	174.26
5.8885	174.10
5.889	173.98
5.8895	173.82
5.89	173.71
5.8905	173.59
5.891	173.43
5.8915	173.20
5.892	173.20
5.8925	173.20
5.893	173.09
5.8935	173.09
5.894	173.09
5.8945	172.98
5.895	172.81
5.8955	172.76
5.896	172.59
5.8965	172.53
5.897	172.42
5.8975	172.37
5.898	172.31
5.8985	172.20
5.899	172.14
5.8995	172.03
5.9	171.98
5.9005	171.98
5.901	171.87
5.9015	171.92
5.902	172.03
5.9025	172.09
5.903	172.09
5.9035	172.09
5.904	172.03
5.9045	172.03
5.905	172.09
5.9055	172.03
5.906	172.09
5.9065	172.14
5.907	172.14
5.9075	172.20
5.908	172.26
5.9085	172.26
5.909	172.31
5.9095	172.37
5.91	172.42
5.9105	172.48
5.911	172.53
5.9115	172.59
5.912	172.76
5.9125	172.93
5.913	173.09
5.9135	173.26
5.914	173.48
5.9145	173.43
5.915	173.48
5.9155	173.59
5.916	173.65
5.9165	173.76
5.917	173.76
5.9175	173.87
5.918	173.98
5.9185	173.98
5.919	174.04
5.9195	174.15
5.92	174.15
5.9205	174.26
5.921	174.26
5.9215	174.37
5.922	174.60
5.9225	174.71
5.923	174.71
5.9235	174.76
5.924	174.76
5.9245	174.82
5.925	174.82
5.9255	174.93
5.926	174.93
5.9265	174.99
5.927	175.04
5.9275	175.04
5.928	175.04
5.9285	175.10
5.929	175.15
5.9295	175.15
5.93	175.21
5.9305	175.27
5.931	175.27
5.9315	175.38
5.932	175.54
5.9325	175.60
5.933	175.71
5.9335	175.93
5.934	175.99
5.9345	175.99
5.935	176.05
5.9355	176.10
5.936	176.10
5.9365	176.16
5.937	176.21
5.9375	176.27
5.938	176.21
5.9385	176.27
5.939	176.38
5.9395	176.38
5.94	176.38
5.9405	176.44
5.941	176.44
5.9415	176.49
5.942	176.71
5.9425	176.71
5.943	176.71
5.9435	176.77
5.944	176.71
5.9445	176.71
5.945	176.66
5.9455	176.66
5.946	176.66
5.9465	176.60
5.947	176.60
5.9475	176.60
5.948	176.44
5.9485	176.44
5.949	176.44
5.9495	176.32
5.95	176.27
5.9505	176.21
5.951	176.10
5.9515	176.10
5.952	176.16
5.9525	176.10
5.953	176.10
5.9535	176.16
5.954	176.10
5.9545	175.99
5.955	175.82
5.9555	175.77
5.956	175.71
5.9565	175.54
5.957	175.38
5.9575	175.32
5.958	175.27
5.9585	175.15
5.959	174.99
5.9595	174.93
5.96	174.82
5.9605	174.71
5.961	174.60
5.9615	174.60
5.962	174.65
5.9625	174.54
5.963	174.49
5.9635	174.37
5.964	174.21
5.9645	174.10
5.965	174.04
5.9655	173.93
5.966	173.82
5.9665	173.76
5.967	173.71
5.9675	173.59
5.968	173.54
5.9685	173.43
5.969	173.32
5.9695	173.26
5.97	173.20
5.9705	173.15
5.971	172.98
5.9715	172.93
5.972	172.93
5.9725	172.93
5.973	172.93
5.9735	172.93
5.974	172.98
5.9745	172.98
5.975	172.93
5.9755	172.81
5.976	172.70
5.9765	172.65
5.977	172.65
5.9775	172.59
5.978	172.48
5.9785	172.48
5.979	172.42
5.9795	172.37
5.98	172.37
5.9805	172.37
5.981	172.37
5.9815	172.26
5.982	172.37
5.9825	172.53
5.983	172.53
5.9835	172.53
5.984	172.53
5.9845	172.48
5.985	172.48
5.9855	172.53
5.986	172.59
5.9865	172.59
5.987	172.70
5.9875	172.70
5.988	172.70
5.9885	172.76
5.989	172.87
5.9895	172.93
5.99	172.98
5.9905	173.04
5.991	173.15
5.9915	173.15
5.992	173.26
5.9925	173.48
5.993	173.59
5.9935	173.71
5.994	173.98
5.9945	174.10
5.995	174.15
5.9955	174.21
5.996	174.26
5.9965	174.37
5.997	174.43
5.9975	174.60
5.998	174.65
5.9985	174.65
5.999	174.76
5.9995	174.88
6	174.93
6.0005	174.99
6.001	175.10
6.0015	175.15
6.002	175.38
6.0025	175.54
6.003	175.66
6.0035	175.77
6.004	175.77
6.0045	175.88
6.005	175.99
6.0055	176.05
6.006	176.16
6.0065	176.27
6.007	176.32
6.0075	176.44
6.008	176.49
6.0085	176.55
6.009	176.66
6.0095	176.77
6.01	176.83
6.0105	176.88
6.011	176.94
6.0115	177.05
6.012	177.11
6.0125	177.16
6.013	177.38
6.0135	177.50
6.014	177.55
6.0145	177.83
6.015	177.94
6.0155	177.89
6.016	177.94
6.0165	178.05
6.017	178.05
6.0175	178.05
6.018	178.05
6.0185	178.16
6.019	178.16
6.0195	178.11
6.02	178.16
6.0205	178.16
6.021	178.11
6.0215	178.05
6.022	178.05
6.0225	178.05
6.023	178.22
6.0235	178.22
6.024	178.16
6.0245	178.11
6.025	178.05
6.0255	178.00
6.026	177.94
6.0265	177.83
6.027	177.72
6.0275	177.66
6.028	177.55
6.0285	177.50
6.029	177.44
6.0295	177.33
6.03	177.22
6.0305	177.11
6.031	176.99
6.0315	176.88
6.032	176.83
6.0325	176.66
6.033	176.71
6.0335	176.66
6.034	176.55
6.0345	176.71
6.035	176.66
6.0355	176.49
6.036	176.38
6.0365	176.27
6.037	176.16
6.0375	176.05
6.038	175.93
6.0385	175.82
6.039	175.71
6.0395	175.60
6.04	175.49
6.0405	175.38
6.041	175.32
6.0415	175.21
6.042	175.04
6.0425	175.04
6.043	175.10
6.0435	175.04
6.044	174.99
6.0445	174.88
6.045	174.76
6.0455	174.76
6.046	174.65
6.0465	174.60
6.047	174.54
6.0475	174.43
6.048	174.37
6.0485	174.32
6.049	174.32
6.0495	174.26
6.05	174.21
6.0505	174.21
6.051	174.15
6.0515	174.21
6.052	174.10
6.0525	174.15
6.053	174.26
6.0535	174.32
6.054	174.37
6.0545	174.54
6.055	174.54
6.0555	174.49
6.056	174.54
6.0565	174.60
6.057	174.60
6.0575	174.60
6.058	174.60
6.0585	174.71
6.059	174.71
6.0595	174.71
6.06	174.76
6.0605	174.82
6.061	174.82
6.0615	174.93
6.062	174.99
6.0625	175.10
6.063	175.32
6.0635	175.43
6.064	175.54
6.0645	175.60
6.065	175.66
6.0655	175.66
6.066	175.77
6.0665	175.93
6.067	175.99
6.0675	176.05
6.068	176.21
6.0685	176.27
6.069	176.38
6.0695	176.49
6.07	176.60
6.0705	176.71
6.071	176.77
6.0715	176.94
6.072	177.11
6.0725	177.16
6.073	177.27
6.0735	177.61
6.074	177.77
6.0745	177.89
6.075	178.16
6.0755	178.39
6.076	178.44
6.0765	178.55
6.077	178.72
6.0775	178.83
6.078	178.94
6.0785	179.00
6.079	179.11
6.0795	179.28
6.08	179.33
6.0805	179.45
6.081	179.56
6.0815	179.67
6.082	179.72
6.0825	179.78
6.083	179.89
6.0835	180.11
6.084	180.23
6.0845	180.28
6.085	180.39
6.0855	180.39
6.086	180.45
6.0865	180.50
6.087	180.50
6.0875	180.56
6.088	180.56
6.0885	180.62
6.089	180.67
6.0895	180.67
6.09	180.62
6.0905	180.67
6.091	180.67
6.0915	180.62
6.092	180.67
6.0925	180.62
6.093	180.62
6.0935	180.78
6.094	180.78
6.0945	180.90
6.095	181.01
6.0955	180.95
6.096	180.95
6.0965	180.90
6.097	180.84
6.0975	180.78
6.098	180.73
6.0985	180.73
6.099	180.67
6.0995	180.62
6.1	180.56
6.1005	180.50
6.101	180.45
6.1015	180.39
6.102	180.39
6.1025	180.28
6.103	180.34
6.1035	180.45
6.104	180.39
6.1045	180.34
6.105	180.28
6.1055	180.17
6.106	180.11
6.1065	180.06
6.107	179.95
6.1075	179.95
6.108	179.78
6.1085	179.72
6.109	179.67
6.1095	179.56
6.11	179.50
6.1105	179.39
6.111	179.28
6.1115	179.17
6.112	179.06
6.1125	178.89
6.113	178.83
6.1135	178.83
6.114	178.78
6.1145	178.83
6.115	178.89
6.1155	178.72
6.116	178.55
6.1165	178.44
6.117	178.33
6.1175	178.22
6.118	178.05
6.1185	177.94
6.119	177.77
6.1195	177.66
6.12	177.50
6.1205	177.38
6.121	177.27
6.1215	177.16
6.122	176.99
6.1225	176.94
6.123	176.88
6.1235	176.88
6.124	176.71
6.1245	176.60
6.125	176.55
6.1255	176.44
6.126	176.32
6.1265	176.21
6.127	176.10
6.1275	176.05
6.128	175.93
6.1285	175.82
6.129	175.71
6.1295	175.71
6.13	175.60
6.1305	175.49
6.131	175.43
6.1315	175.38
6.132	175.32
6.1325	175.27
6.133	175.15
6.1335	175.15
6.134	175.21
6.1345	175.27
6.135	175.32
6.1355	175.38
6.136	175.32
6.1365	175.27
6.137	175.21
6.1375	175.15
6.138	175.15
6.1385	175.15
6.139	175.10
6.1395	175.04
6.14	175.04
6.1405	175.04
6.141	175.04
6.1415	175.04
6.142	174.99
6.1425	174.93
6.143	174.99
6.1435	175.10
6.144	175.21
6.1445	175.21
6.145	175.21
6.1455	175.27
6.146	175.21
6.1465	175.27
6.147	175.27
6.1475	175.27
6.148	175.32
6.1485	175.32
6.149	175.32
6.1495	175.38
6.15	175.43
6.1505	175.43
6.151	175.49
6.1515	175.54
6.152	175.54
6.1525	175.60
6.153	175.54
6.1535	175.66
6.154	175.82
6.1545	175.88
6.155	175.99
6.1555	176.16
6.156	176.21
6.1565	176.21
6.157	176.21
6.1575	176.27
6.158	176.27
6.1585	176.32
6.159	176.38
6.1595	176.44
6.16	176.44
6.1605	176.49
6.161	176.55
6.1615	176.60
6.162	176.60
6.1625	176.66
6.163	176.66
6.1635	176.83
6.164	177.05
6.1645	176.99
6.165	177.05
6.1655	177.11
6.166	177.11
6.1665	177.16
6.167	177.16
6.1675	177.22
6.168	177.22
6.1685	177.27
6.169	177.33
6.1695	177.33
6.17	177.38
6.1705	177.44
6.171	177.44
6.1715	177.44
6.172	177.50
6.1725	177.55
6.173	177.50
6.1735	177.66
6.174	177.77
6.1745	177.83
6.175	178.05
6.1755	178.11
6.176	178.11
6.1765	178.11
6.177	178.11
6.1775	178.16
6.178	178.22
6.1785	178.22
6.179	178.22
6.1795	178.28
6.18	178.28
6.1805	178.33
6.181	178.28
6.1815	178.33
6.182	178.33
6.1825	178.33
6.183	178.39
6.1835	178.50
6.184	178.61
6.1845	178.61
6.185	178.61
6.1855	178.61
6.186	178.61
6.1865	178.61
6.187	178.61
6.1875	178.61
6.188	178.61
6.1885	178.55
6.189	178.55
6.1895	178.55
6.19	178.50
6.1905	178.55
6.191	178.50
6.1915	178.50
6.192	178.44
6.1925	178.39
6.193	178.39
6.1935	178.50
6.194	178.44
6.1945	178.50
6.195	178.72
6.1955	178.67
6.196	178.55
6.1965	178.50
6.197	178.44
6.1975	178.39
6.198	178.33
6.1985	178.22
6.199	178.16
6.1995	178.05
6.2	178.00
6.2005	177.89
6.201	177.83
6.2015	177.72
6.202	177.61
6.2025	177.50
6.203	177.50
6.2035	177.55
6.204	177.38
6.2045	177.22
6.205	177.16
6.2055	176.99
6.206	176.88
6.2065	176.77
6.207	176.66
6.2075	176.49
6.208	176.38
6.2085	176.21
6.209	176.05
6.2095	175.93
6.21	175.82
6.2105	175.66
6.211	175.49
6.2115	175.38
6.212	175.21
6.2125	174.99
6.213	174.82
6.2135	174.76
6.214	174.76
6.2145	174.71
6.215	174.65
6.2155	174.49
6.216	174.26
6.2165	174.15
6.217	174.04
6.2175	173.82
6.218	173.71
6.2185	173.54
6.219	173.43
6.2195	173.32
6.22	173.09
6.2205	172.98
6.221	172.93
6.2215	172.81
6.222	172.59
6.2225	172.48
6.223	172.48
6.2235	172.48
6.224	172.37
6.2245	172.26
6.225	172.20
6.2255	172.03
6.226	171.92
6.2265	171.87
6.227	171.75
6.2275	171.64
6.228	171.64
6.2285	171.53
6.229	171.53
6.2295	171.48
6.23	171.36
6.2305	171.36
6.231	171.36
6.2315	171.36
6.232	171.25
6.2325	171.20
6.233	171.25
6.2335	171.36
6.234	171.42
6.2345	171.53
6.235	171.53
6.2355	171.53
6.236	171.53
6.2365	171.53
6.237	171.59
6.2375	171.59
6.238	171.64
6.2385	171.70
6.239	171.75
6.2395	171.75
6.24	171.81
6.2405	171.87
6.241	171.92
6.2415	172.03
6.242	172.03
6.2425	172.09
6.243	172.37
6.2435	172.48
6.244	172.53
6.2445	172.70
6.245	172.70
6.2455	172.76
6.246	172.81
6.2465	172.87
6.247	172.98
6.2475	173.04
6.248	173.15
6.2485	173.20
6.249	173.26
6.2495	173.37
6.25	173.48
6.2505	173.54
6.251	173.59
6.2515	173.65
6.252	173.71
6.2525	173.76
6.253	173.98
6.2535	174.10
6.254	174.21
6.2545	174.32
6.255	174.43
6.2555	174.43
6.256	174.49
6.2565	174.54
6.257	174.60
6.2575	174.60
6.258	174.65
6.2585	174.71
6.259	174.76
6.2595	174.76
6.26	174.76
6.2605	174.82
6.261	174.88
6.2615	174.88
6.262	174.88
6.2625	174.99
6.263	175.15
6.2635	175.15
6.264	175.15
6.2645	175.15
6.265	175.15
6.2655	175.15
6.266	175.10
6.2665	175.15
6.267	175.15
6.2675	175.04
6.268	175.04
6.2685	175.04
6.269	175.04
6.2695	174.99
6.27	174.99
6.2705	174.93
6.271	174.99
6.2715	174.93
6.272	174.82
6.2725	174.82
6.273	174.88
6.2735	174.93
6.274	174.99
6.2745	174.99
6.275	174.99
6.2755	174.88
6.276	174.82
6.2765	174.82
6.277	174.71
6.2775	174.65
6.278	174.54
6.2785	174.43
6.279	174.37
6.2795	174.26
6.28	174.15
6.2805	174.10
6.281	173.98
6.2815	173.87
6.282	173.76
6.2825	173.76
6.283	173.76
6.2835	173.59
6.284	173.48
6.2845	173.37
6.285	173.20
6.2855	173.09
6.286	172.93
6.2865	172.81
6.287	172.70
6.2875	172.53
6.288	172.37
6.2885	172.26
6.289	172.14
6.2895	171.98
6.29	171.81
6.2905	171.64
6.291	171.53
6.2915	171.36
6.292	171.20
6.2925	171.14
6.293	171.09
6.2935	171.09
6.294	171.03
6.2945	170.92
6.295	170.86
6.2955	170.70
6.296	170.64
6.2965	170.53
6.297	170.42
6.2975	170.36
6.298	170.25
6.2985	170.19
6.299	170.14
6.2995	170.08
6.3	169.97
6.3005	169.92
6.301	169.86
6.3015	169.80
6.302	169.80
6.3025	169.86
6.303	169.86
6.3035	169.75
6.304	169.75
6.3045	169.69
6.305	169.64
6.3055	169.64
6.306	169.58
6.3065	169.53
6.307	169.53
6.3075	169.47
6.308	169.47
6.3085	169.41
6.309	169.41
6.3095	169.41
6.31	169.36
6.3105	169.41
6.311	169.41
6.3115	169.36
6.312	169.36
6.3125	169.47
6.313	169.58
6.3135	169.69
6.314	169.80
6.3145	169.80
6.315	169.80
6.3155	169.86
6.316	169.92
6.3165	169.97
6.317	170.03
6.3175	170.14
6.318	170.19
6.3185	170.31
6.319	170.36
6.3195	170.42
6.32	170.53
6.3205	170.64
6.321	170.64
6.3215	170.75
6.322	170.92
6.3225	171.14
6.323	171.25
6.3235	171.31
6.324	171.36
6.3245	171.48
6.325	171.53
6.3255	171.64
6.326	171.70
6.3265	171.81
6.327	171.87
6.3275	171.98
6.328	172.09
6.3285	172.14
6.329	172.20
6.3295	172.31
6.33	172.42
6.3305	172.53
6.331	172.65
6.3315	172.59
6.332	172.76
6.3325	172.98
6.333	173.09
6.3335	173.32
6.334	173.48
6.3345	173.54
6.335	173.65
6.3355	173.76
6.336	173.87
6.3365	173.98
6.337	174.10
6.3375	174.21
6.338	174.32
6.3385	174.43
6.339	174.54
6.3395	174.65
6.34	174.76
6.3405	174.88
6.341	174.93
6.3415	175.10
6.342	175.27
6.3425	175.49
6.343	175.60
6.3435	175.66
6.344	175.77
6.3445	175.82
6.345	175.88
6.3455	175.99
6.346	176.10
6.3465	176.16
6.347	176.21
6.3475	176.27
6.348	176.32
6.3485	176.44
6.349	176.44
6.3495	176.44
6.35	176.49
6.3505	176.55
6.351	176.55
6.3515	176.55
6.352	176.66
6.3525	176.71
6.353	176.83
6.3535	176.94
6.354	176.94
6.3545	176.88
6.355	176.88
6.3555	176.88
6.356	176.83
6.3565	176.83
6.357	176.77
6.3575	176.71
6.358	176.66
6.3585	176.55
6.359	176.55
6.3595	176.49
6.36	176.38
6.3605	176.32
6.361	176.21
6.3615	176.16
6.362	176.21
6.3625	176.16
6.363	175.99
6.3635	175.93
6.364	175.82
6.3645	175.66
6.365	175.60
6.3655	175.49
6.366	175.27
6.3665	175.21
6.367	175.15
6.3675	174.93
6.368	174.76
6.3685	174.65
6.369	174.54
6.3695	174.43
6.37	174.26
6.3705	174.15
6.371	173.98
6.3715	173.82
6.372	173.82
6.3725	173.71
6.373	173.65
6.3735	173.59
6.374	173.48
6.3745	173.37
6.375	173.20
6.3755	173.04
6.376	172.93
6.3765	172.81
6.377	172.65
6.3775	172.42
6.378	172.31
6.3785	172.20
6.379	172.03
6.3795	171.92
6.38	171.75
6.3805	171.59
6.381	171.42
6.3815	171.36
6.382	171.31
6.3825	171.20
6.383	171.03
6.3835	170.92
6.384	170.81
6.3845	170.70
6.385	170.58
6.3855	170.47
6.386	170.36
6.3865	170.25
6.387	170.19
6.3875	170.14
6.388	170.03
6.3885	169.97
6.389	169.97
6.3895	169.86
6.39	169.86
6.3905	169.75
6.391	169.69
6.3915	169.69
6.392	169.75
6.3925	169.75
6.393	169.80
6.3935	169.80
6.394	169.75
6.3945	169.75
6.395	169.75
6.3955	169.69
6.396	169.64
6.3965	169.64
6.397	169.58
6.3975	169.58
6.398	169.58
6.3985	169.58
6.399	169.53
6.3995	169.47
6.4	169.47
6.4005	169.53
6.401	169.53
6.4015	169.58
6.402	169.69
6.4025	169.75
6.403	169.80
6.4035	169.80
6.404	169.80
6.4045	169.86
6.405	169.97
6.4055	170.03
6.406	170.03
6.4065	170.08
6.407	170.19
6.4075	170.25
6.408	170.31
6.4085	170.36
6.409	170.42
6.4095	170.53
6.41	170.58
6.4105	170.70
6.411	170.70
6.4115	170.81
6.412	170.97
6.4125	171.09
6.413	171.31
6.4135	171.48
6.414	171.53
6.4145	171.59
6.415	171.70
6.4155	171.81
6.416	171.92
6.4165	171.98
6.417	172.09
6.4175	172.20
6.418	172.37
6.4185	172.48
6.419	172.59
6.4195	172.76
6.42	172.87
6.4205	172.98
6.421	173.15
6.4215	173.43
6.422	173.65
6.4225	173.82
6.423	173.98
6.4235	174.15
6.424	174.26
6.4245	174.43
6.425	174.60
6.4255	174.82
6.426	174.93
6.4265	175.10
6.427	175.21
6.4275	175.38
6.428	175.60
6.4285	175.71
6.429	175.82
6.4295	175.99
6.43	176.10
6.4305	176.21
6.431	176.27
6.4315	176.49
6.432	176.66
6.4325	176.83
6.433	177.05
6.4335	177.05
6.434	177.16
6.4345	177.22
6.435	177.27
6.4355	177.33
6.436	177.44
6.4365	177.44
6.437	177.44
6.4375	177.55
6.438	177.61
6.4385	177.61
6.439	177.66
6.4395	177.61
6.44	177.66
6.4405	177.66
6.441	177.72
6.4415	177.83
6.442	177.83
6.4425	177.83
6.443	177.83
6.4435	177.77
6.444	177.77
6.4445	177.72
6.445	177.66
6.4455	177.66
6.446	177.61
6.4465	177.55
6.447	177.55
6.4475	177.50
6.448	177.44
6.4485	177.33
6.449	177.27
6.4495	177.22
6.45	177.11
6.4505	176.99
6.451	176.88
6.4515	176.88
6.452	176.88
6.4525	176.83
6.453	176.83
6.4535	176.71
6.454	176.60
6.4545	176.55
6.455	176.55
6.4555	176.44
6.456	176.32
6.4565	176.16
6.457	176.05
6.4575	175.93
6.458	175.77
6.4585	175.66
6.459	175.49
6.4595	175.38
6.46	175.21
6.4605	175.04
6.461	174.99
6.4615	174.99
6.462	174.76
6.4625	174.65
6.463	174.54
6.4635	174.37
6.464	174.26
6.4645	174.15
6.465	173.98
6.4655	173.87
6.466	173.71
6.4665	173.59
6.467	173.54
6.4675	173.37
6.468	173.26
6.4685	173.15
6.469	173.04
6.4695	172.98
6.47	172.87
6.4705	172.70
6.471	172.65
6.4715	172.65
6.472	172.65
6.4725	172.59
6.473	172.65
6.4735	172.59
6.474	172.53
6.4745	172.48
6.475	172.42
6.4755	172.31
6.476	172.26
6.4765	172.26
6.477	172.26
6.4775	172.20
6.478	172.14
6.4785	172.14
6.479	172.14
6.4795	172.09
6.48	172.03
6.4805	172.03
6.481	172.03
6.4815	172.14
6.482	172.14
6.4825	172.09
6.483	172.09
6.4835	172.09
6.484	172.09
6.4845	172.03
6.485	172.03
6.4855	172.03
6.486	171.98
6.4865	171.98
6.487	171.92
6.4875	171.92
6.488	171.92
6.4885	171.92
6.489	171.92
6.4895	171.87
6.49	171.92
6.4905	171.87
6.491	171.87
6.4915	171.98
6.492	172.03
6.4925	172.14
6.493	172.20
6.4935	172.14
6.494	172.14
6.4945	172.20
6.495	172.20
6.4955	172.26
6.496	172.26
6.4965	172.26
6.497	172.31
6.4975	172.37
6.498	172.37
6.4985	172.42
6.499	172.48
6.4995	172.42
6.5	172.48
6.5005	172.53
6.501	172.59
6.5015	172.76
6.502	172.81
6.5025	172.87
6.503	172.87
6.5035	172.87
6.504	172.98
6.5045	172.98
6.505	173.04
6.5055	173.09
6.506	173.15
6.5065	173.15
6.507	173.20
6.5075	173.26
6.508	173.26
6.5085	173.32
6.509	173.37
6.5095	173.43
6.51	173.48
6.5105	173.48
6.511	173.48
6.5115	173.59
6.512	173.71
6.5125	173.71
6.513	173.82
6.5135	173.93
6.514	173.93
6.5145	173.98
6.515	173.98
6.5155	173.98
6.516	173.93
6.5165	173.93
6.517	173.93
6.5175	173.87
6.518	173.93
6.5185	173.93
6.519	173.82
6.5195	173.76
6.52	173.76
6.5205	173.76
6.521	173.65
6.5215	173.65
6.522	173.71
6.5225	173.71
6.523	173.59
6.5235	173.59
6.524	173.48
6.5245	173.37
6.525	173.32
6.5255	173.20
6.526	173.09
6.5265	172.98
6.527	172.93
6.5275	172.81
6.528	172.70
6.5285	172.59
6.529	172.42
6.5295	172.37
6.53	172.20
6.5305	172.03
6.531	171.92
6.5315	171.75
6.532	171.70
6.5325	171.70
6.533	171.64
6.5335	171.59
6.534	171.42
6.5345	171.25
6.535	171.20
6.5355	171.03
6.536	170.86
6.5365	170.70
6.537	170.58
6.5375	170.42
6.538	170.19
6.5385	170.08
6.539	169.97
6.5395	169.75
6.54	169.58
6.5405	169.47
6.541	169.30
6.5415	169.14
6.542	169.08
6.5425	168.91
6.543	168.74
6.5435	168.63
6.544	168.41
6.5445	168.24
6.545	168.13
6.5455	167.96
6.546	167.80
6.5465	167.69
6.547	167.57
6.5475	167.41
6.548	167.30
6.5485	167.18
6.549	167.02
6.5495	166.91
6.55	166.79
6.5505	166.74
6.551	166.57
6.5515	166.46
6.552	166.46
6.5525	166.46
6.553	166.46
6.5535	166.46
6.554	166.40
6.5545	166.35
6.555	166.24
6.5555	166.18
6.556	166.13
6.5565	166.07
6.557	166.07
6.5575	166.01
6.558	166.01
6.5585	166.01
6.559	165.96
6.5595	165.96
6.56	165.90
6.5605	165.85
6.561	165.85
6.5615	165.79
6.562	165.90
6.5625	165.90
6.563	165.85
6.5635	165.85
6.564	165.79
6.5645	165.74
6.565	165.74
6.5655	165.74
6.566	165.68
6.5665	165.62
6.567	165.57
6.5675	165.51
6.568	165.51
6.5685	165.46
6.569	165.46
6.5695	165.46
6.57	165.40
6.5705	165.29
6.571	165.23
6.5715	165.23
6.572	165.23
6.5725	165.23
6.573	165.29
6.5735	165.29
6.574	165.35
6.5745	165.35
6.575	165.35
6.5755	165.23
6.576	165.18
6.5765	165.18
6.577	165.12
6.5775	165.12
6.578	165.12
6.5785	165.12
6.579	165.12
6.5795	165.12
6.58	165.07
6.5805	165.12
6.581	165.12
6.5815	165.07
6.582	165.12
6.5825	165.23
6.583	165.29
6.5835	165.29
6.584	165.23
6.5845	165.29
6.585	165.23
6.5855	165.23
6.586	165.23
6.5865	165.23
6.587	165.23
6.5875	165.23
6.588	165.23
6.5885	165.23
6.589	165.23
6.5895	165.23
6.59	165.23
6.5905	165.23
6.591	165.23
6.5915	165.23
6.592	165.23
6.5925	165.23
6.593	165.29
6.5935	165.35
6.594	165.46
6.5945	165.46
6.595	165.46
6.5955	165.46
6.596	165.40
6.5965	165.35
6.597	165.35
6.5975	165.29
6.598	165.23
6.5985	165.23
6.599	165.23
6.5995	165.23
6.6	165.23
6.6005	165.18
6.601	165.18
6.6015	165.07
6.602	165.12
6.6025	165.18
6.603	165.23
6.6035	165.23
6.604	165.18
6.6045	165.18
6.605	165.12
6.6055	165.12
6.606	165.07
6.6065	165.01
6.607	165.01
6.6075	165.01
6.608	164.96
6.6085	164.90
6.609	164.90
6.6095	164.90
6.61	164.84
6.6105	164.79
6.611	164.73
6.6115	164.73
6.612	164.73
6.6125	164.68
6.613	164.62
6.6135	164.73
6.614	164.68
6.6145	164.73
6.615	164.79
6.6155	164.79
6.616	164.73
6.6165	164.68
6.617	164.56
6.6175	164.56
6.618	164.56
6.6185	164.51
6.619	164.51
6.6195	164.45
6.62	164.45
6.6205	164.40
6.621	164.40
6.6215	164.29
6.622	164.34
6.6225	164.34
6.623	164.34
6.6235	164.45
6.624	164.45
6.6245	164.40
6.625	164.45
6.6255	164.40
6.626	164.40
6.6265	164.45
6.627	164.45
6.6275	164.40
6.628	164.45
6.6285	164.51
6.629	164.56
6.6295	164.56
6.63	164.62
6.6305	164.68
6.631	164.68
6.6315	164.73
6.632	164.79
6.6325	164.84
6.633	164.90
6.6335	165.01
6.634	165.12
6.6345	165.29
6.635	165.46
6.6355	165.57
6.636	165.62
6.6365	165.62
6.637	165.68
6.6375	165.74
6.638	165.85
6.6385	165.96
6.639	166.01
6.6395	166.18
6.64	166.24
6.6405	166.35
6.641	166.40
6.6415	166.46
6.642	166.52
6.6425	166.63
6.643	166.68
6.6435	166.79
6.644	166.91
6.6445	166.96
6.645	167.07
6.6455	167.07
6.646	167.07
6.6465	167.13
6.647	167.13
6.6475	167.18
6.648	167.24
6.6485	167.35
6.649	167.35
6.6495	167.30
6.65	167.35
6.6505	167.41
6.651	167.41
6.6515	167.41
6.652	167.46
6.6525	167.52
6.653	167.52
6.6535	167.46
6.654	167.52
6.6545	167.63
6.655	167.69
6.6555	167.74
6.656	167.80
6.6565	167.80
6.657	167.74
6.6575	167.74
6.658	167.74
6.6585	167.74
6.659	167.80
6.6595	167.80
6.66	167.85
6.6605	167.85
6.661	167.85
6.6615	167.91
6.662	167.85
6.6625	167.85
6.663	167.91
6.6635	167.91
6.664	168.02
6.6645	168.08
6.665	168.13
6.6655	168.13
6.666	168.13
6.6665	168.13
6.667	168.13
6.6675	168.13
6.668	168.19
6.6685	168.19
6.669	168.13
6.6695	168.19
6.67	168.19
6.6705	168.19
6.671	168.19
6.6715	168.19
6.672	168.24
6.6725	168.19
6.673	168.19
6.6735	168.19
6.674	168.19
6.6745	168.30
6.675	168.35
6.6755	168.41
6.676	168.41
6.6765	168.35
6.677	168.30
6.6775	168.24
6.678	168.19
6.6785	168.19
6.679	168.13
6.6795	168.13
6.68	168.13
6.6805	168.08
6.681	168.02
6.6815	167.96
6.682	167.91
6.6825	167.85
6.683	167.80
6.6835	167.74
6.684	167.74
6.6845	167.74
6.685	167.69
6.6855	167.63
6.686	167.57
6.6865	167.46
6.687	167.41
6.6875	167.35
6.688	167.24
6.6885	167.18
6.689	167.07
6.6895	167.02
6.69	166.91
6.6905	166.85
6.691	166.79
6.6915	166.74
6.692	166.57
6.6925	166.52
6.693	166.40
6.6935	166.35
6.694	166.29
6.6945	166.24
6.695	166.29
6.6955	166.29
6.696	166.24
6.6965	166.13
6.697	166.01
6.6975	165.90
6.698	165.79
6.6985	165.74
6.699	165.68
6.6995	165.62
6.7	165.57
6.7005	165.51
6.701	165.40
6.7015	165.35
6.702	165.29
6.7025	165.23
6.703	165.18
6.7035	165.12
6.704	165.18
6.7045	165.18
6.705	165.12
6.7055	165.07
6.706	165.01
6.7065	164.96
6.707	164.90
6.7075	164.90
6.708	164.84
6.7085	164.79
6.709	164.73
6.7095	164.68
6.71	164.73
6.7105	164.68
6.711	164.73
6.7115	164.73
6.712	164.68
6.7125	164.73
6.713	164.73
6.7135	164.68
6.714	164.73
6.7145	164.79
6.715	164.90
6.7155	165.01
6.716	165.01
6.7165	164.96
6.717	165.01
6.7175	165.01
6.718	165.07
6.7185	165.12
6.719	165.18
6.7195	165.23
6.72	165.23
6.7205	165.35
6.721	165.46
6.7215	165.51
6.722	165.57
6.7225	165.68
6.723	165.74
6.7235	165.85
6.724	166.01
6.7245	166.13
6.725	166.18
6.7255	166.29
6.726	166.40
6.7265	166.46
6.727	166.52
6.7275	166.63
6.728	166.68
6.7285	166.79
6.729	166.85
6.7295	166.96
6.73	166.96
6.7305	167.02
6.731	167.13
6.7315	167.24
6.732	167.30
6.7325	167.35
6.733	167.46
6.7335	167.52
6.734	167.57
6.7345	167.69
6.735	167.80
6.7355	167.96
6.736	168.08
6.7365	168.19
6.737	168.24
6.7375	168.24
6.738	168.30
6.7385	168.35
6.739	168.41
6.7395	168.47
6.74	168.58
6.7405	168.69
6.741	168.69
6.7415	168.74
6.742	168.80
6.7425	168.86
6.743	168.91
6.7435	168.97
6.744	169.02
6.7445	169.14
6.745	169.25
6.7455	169.30
6.746	169.30
6.7465	169.36
6.747	169.36
6.7475	169.36
6.748	169.36
6.7485	169.36
6.749	169.36
6.7495	169.41
6.75	169.41
6.7505	169.41
6.751	169.41
6.7515	169.41
6.752	169.36
6.7525	169.30
6.753	169.30
6.7535	169.30
6.754	169.25
6.7545	169.30
6.755	169.36
6.7555	169.36
6.756	169.41
6.7565	169.36
6.757	169.30
6.7575	169.19
6.758	169.08
6.7585	169.08
6.759	168.97
6.7595	168.86
6.76	168.80
6.7605	168.74
6.761	168.69
6.7615	168.63
6.762	168.52
6.7625	168.47
6.763	168.35
6.7635	168.24
6.764	168.13
6.7645	168.13
6.765	168.08
6.7655	167.96
6.766	167.85
6.7665	167.74
6.767	167.63
6.7675	167.52
6.768	167.41
6.7685	167.35
6.769	167.24
6.7695	167.07
6.77	166.96
6.7705	166.85
6.771	166.74
6.7715	166.63
6.772	166.52
6.7725	166.40
6.773	166.35
6.7735	166.18
6.774	166.07
6.7745	166.01
6.775	166.01
6.7755	165.96
6.776	165.90
6.7765	165.74
6.777	165.62
6.7775	165.46
6.778	165.35
6.7785	165.23
6.779	165.07
6.7795	165.01
6.78	164.90
6.7805	164.84
6.781	164.79
6.7815	164.68
6.782	164.62
6.7825	164.56
6.783	164.45
6.7835	164.34
6.784	164.34
6.7845	164.34
6.785	164.29
6.7855	164.23
6.786	164.17
6.7865	164.06
6.787	164.01
6.7875	164.01
6.788	163.90
6.7885	163.84
6.789	163.78
6.7895	163.73
6.79	163.67
6.7905	163.67
6.791	163.67
6.7915	163.62
6.792	163.62
6.7925	163.56
6.793	163.56
6.7935	163.56
6.794	163.51
6.7945	163.51
6.795	163.56
6.7955	163.67
6.796	163.73
6.7965	163.73
6.797	163.78
6.7975	163.73
6.798	163.73
6.7985	163.78
6.799	163.78
6.7995	163.78
6.8	163.84
6.8005	163.84
6.801	163.84
6.8015	163.90
6.802	163.95
6.8025	163.95
6.803	164.01
6.8035	164.06
6.804	164.01
6.8045	164.12
6.805	164.23
6.8055	164.23
6.806	164.29
6.8065	164.29
6.807	164.29
6.8075	164.29
6.808	164.34
6.8085	164.40
6.809	164.40
6.8095	164.40
6.81	164.45
6.8105	164.51
6.811	164.51
6.8115	164.56
6.812	164.56
6.8125	164.56
6.813	164.62
6.8135	164.62
6.814	164.68
6.8145	164.68
6.815	164.79
6.8155	164.90
6.816	164.96
6.8165	165.07
6.817	165.18
6.8175	165.23
6.818	165.23
6.8185	165.23
6.819	165.23
6.8195	165.35
6.82	165.40
6.8205	165.46
6.821	165.51
6.8215	165.57
6.822	165.62
6.8225	165.62
6.823	165.74
6.8235	165.79
6.824	165.85
6.8245	165.90
6.825	166.01
6.8255	166.13
6.826	166.18
6.8265	166.24
6.827	166.29
6.8275	166.29
6.828	166.35
6.8285	166.35
6.829	166.40
6.8295	166.46
6.83	166.52
6.8305	166.52
6.831	166.57
6.8315	166.57
6.832	166.63
6.8325	166.63
6.833	166.68
6.8335	166.74
6.834	166.79
6.8345	166.85
6.835	166.91
6.8355	167.07
6.836	167.18
6.8365	167.24
6.837	167.30
6.8375	167.30
6.838	167.30
6.8385	167.30
6.839	167.35
6.8395	167.35
6.84	167.35
6.8405	167.35
6.841	167.41
6.8415	167.41
6.842	167.46
6.8425	167.46
6.843	167.46
6.8435	167.52
6.844	167.46
6.8445	167.41
6.845	167.52
6.8455	167.52
6.846	167.46
6.8465	167.46
6.847	167.46
6.8475	167.41
6.848	167.41
6.8485	167.35
6.849	167.30
6.8495	167.30
6.85	167.24
6.8505	167.24
6.851	167.18
6.8515	167.18
6.852	167.13
6.8525	167.07
6.853	167.02
6.8535	166.96
6.854	166.96
6.8545	166.91
6.855	167.02
6.8555	167.07
6.856	167.07
6.8565	167.07
6.857	167.02
6.8575	167.02
6.858	166.91
6.8585	166.85
6.859	166.79
6.8595	166.79
6.86	166.79
6.8605	166.74
6.861	166.74
6.8615	166.74
6.862	166.63
6.8625	166.68
6.863	166.63
6.8635	166.57
6.864	166.63
6.8645	166.63
6.865	166.68
6.8655	166.68
6.866	166.68
6.8665	166.74
6.867	166.68
6.8675	166.68
6.868	166.63
6.8685	166.57
6.869	166.63
6.8695	166.63
6.87	166.63
6.8705	166.63
6.871	166.63
6.8715	166.63
6.872	166.63
6.8725	166.68
6.873	166.63
6.8735	166.63
6.874	166.63
6.8745	166.68
6.875	166.63
6.8755	166.74
6.876	166.85
6.8765	166.85
6.877	166.91
6.8775	166.91
6.878	166.91
6.8785	166.91
6.879	166.91
6.8795	166.91
6.88	166.96
6.8805	166.96
6.881	166.91
6.8815	166.96
6.882	166.96
6.8825	167.07
6.883	167.07
6.8835	167.13
6.884	167.18
6.8845	167.18
6.885	167.30
6.8855	167.41
6.886	167.46
6.8865	167.57
6.887	167.63
6.8875	167.69
6.888	167.80
6.8885	167.80
6.889	167.91
6.8895	168.02
6.89	168.13
6.8905	168.24
6.891	168.35
6.8915	168.47
6.892	168.58
6.8925	168.69
6.893	168.80
6.8935	168.86
6.894	168.97
6.8945	169.08
6.895	169.30
6.8955	169.58
6.896	169.69
6.8965	169.86
6.897	170.03
6.8975	170.14
6.898	170.19
6.8985	170.31
6.899	170.36
6.8995	170.42
6.9	170.53
6.9005	170.64
6.901	170.70
6.9015	170.81
6.902	170.92
6.9025	171.03
6.903	171.14
6.9035	171.20
6.904	171.20
6.9045	171.31
6.905	171.53
6.9055	171.59
6.906	171.59
6.9065	171.70
6.907	171.75
6.9075	171.81
6.908	171.87
6.9085	171.98
6.909	172.03
6.9095	172.09
6.91	172.14
6.9105	172.14
6.911	172.26
6.9115	172.31
6.912	172.37
6.9125	172.42
6.913	172.42
6.9135	172.48
6.914	172.53
6.9145	172.59
6.915	172.76
6.9155	172.87
6.916	172.93
6.9165	172.98
6.917	173.04
6.9175	173.04
6.918	172.98
6.9185	172.98
6.919	172.98
6.9195	172.93
6.92	172.98
6.9205	172.98
6.921	172.93
6.9215	172.93
6.922	172.93
6.9225	172.93
6.923	172.93
6.9235	172.87
6.924	172.76
6.9245	172.81
6.925	172.81
6.9255	172.70
6.926	172.70
6.9265	172.70
6.927	172.65
6.9275	172.59
6.928	172.48
6.9285	172.42
6.929	172.37
6.9295	172.26
6.93	172.20
6.9305	172.14
6.931	172.03
6.9315	171.98
6.932	171.92
6.9325	171.81
6.933	171.70
6.9335	171.59
6.934	171.48
6.9345	171.48
6.935	171.48
6.9355	171.42
6.936	171.36
6.9365	171.25
6.937	171.14
6.9375	170.97
6.938	170.75
6.9385	170.64
6.939	170.47
6.9395	170.36
6.94	170.25
6.9405	170.14
6.941	169.97
6.9415	169.86
6.942	169.75
6.9425	169.58
6.943	169.41
6.9435	169.30
6.944	169.14
6.9445	169.08
6.945	168.97
6.9455	168.86
6.946	168.74
6.9465	168.63
6.947	168.47
6.9475	168.35
6.948	168.24
6.9485	168.19
6.949	168.02
6.9495	167.96
6.95	167.85
6.9505	167.69
6.951	167.63
6.9515	167.57
6.952	167.46
6.9525	167.41
6.953	167.35
6.9535	167.24
6.954	167.18
6.9545	167.07
6.955	167.13
6.9555	167.24
6.956	167.18
6.9565	167.18
6.957	167.13
6.9575	167.07
6.958	167.02
6.9585	166.96
6.959	166.91
6.9595	166.85
6.96	166.79
6.9605	166.79
6.961	166.74
6.9615	166.74
6.962	166.68
6.9625	166.68
6.963	166.57
6.9635	166.57
6.964	166.52
6.9645	166.52
6.965	166.57
6.9655	166.57
6.966	166.52
6.9665	166.52
6.967	166.46
6.9675	166.46
6.968	166.52
6.9685	166.52
6.969	166.40
6.9695	166.46
6.97	166.57
6.9705	166.57
6.971	166.57
6.9715	166.63
6.972	166.63
6.9725	166.68
6.973	166.79
6.9735	166.85
6.974	166.79
6.9745	166.91
6.975	167.18
6.9755	167.35
6.976	167.41
6.9765	167.52
6.977	167.57
6.9775	167.63
6.978	167.69
6.9785	167.74
6.979	167.85
6.9795	167.91
6.98	167.96
6.9805	168.02
6.981	168.08
6.9815	168.19
6.982	168.30
6.9825	168.41
6.983	168.52
6.9835	168.58
6.984	168.69
6.9845	168.86
6.985	168.91
6.9855	169.02
6.986	169.14
6.9865	169.25
6.987	169.30
6.9875	169.41
6.988	169.47
6.9885	169.58
6.989	169.69
6.9895	169.75
6.99	169.80
6.9905	169.86
6.991	169.92
6.9915	170.03
6.992	170.08
6.9925	170.14
6.993	170.25
6.9935	170.31
6.994	170.31
6.9945	170.58
6.995	170.70
6.9955	170.75
6.996	170.81
6.9965	170.86
6.997	170.86
6.9975	170.86
6.998	170.86
6.9985	170.86
6.999	170.92
6.9995	170.92
7	170.97
7.0005	170.97
7.001	171.03
7.0015	171.03
7.002	171.03
7.0025	171.03
7.003	171.03
7.0035	171.03
7.004	171.03
7.0045	171.03
7.005	171.03
7.0055	171.03
7.006	170.97
7.0065	170.92
7.007	170.86
7.0075	170.86
7.008	170.81
7.0085	170.81
7.009	170.75
7.0095	170.70
7.01	170.70
7.0105	170.58
7.011	170.53
7.0115	170.47
7.012	170.42
7.0125	170.36
7.013	170.31
7.0135	170.19
7.014	170.19
7.0145	170.25
7.015	170.31
7.0155	170.25
7.016	170.19
7.0165	170.08
7.017	169.97
7.0175	169.86
7.018	169.75
7.0185	169.69
7.019	169.58
7.0195	169.53
7.02	169.41
7.0205	169.30
7.021	169.25
7.0215	169.14
7.022	169.08
7.0225	168.97
7.023	168.91
7.0235	168.80
7.024	168.74
7.0245	168.69
7.025	168.63
7.0255	168.58
7.026	168.52
7.0265	168.41
7.027	168.30
7.0275	168.24
7.028	168.19
7.0285	168.08
7.029	168.08
7.0295	168.02
7.03	167.85
7.0305	167.85
7.031	167.80
7.0315	167.69
7.032	167.69
7.0325	167.63
7.033	167.63
7.0335	167.57
7.034	167.46
7.0345	167.52
7.035	167.57
7.0355	167.57
7.036	167.57
7.0365	167.52
7.037	167.46
7.0375	167.35
7.038	167.30
7.0385	167.24
7.039	167.24
7.0395	167.18
7.04	167.13
7.0405	167.13
7.041	167.02
7.0415	167.02
7.042	167.02
7.0425	166.96
7.043	166.96
7.0435	166.85
7.044	166.91
7.0445	166.91
7.045	166.85
7.0455	166.85
7.046	166.79
7.0465	166.79
7.047	166.79
7.0475	166.79
7.048	166.79
7.0485	166.85
7.049	166.85
7.0495	166.91
7.05	166.91
7.0505	167.02
7.051	167.07
7.0515	167.07
7.052	167.13
7.0525	167.18
7.053	167.24
7.0535	167.35
7.054	167.46
7.0545	167.69
7.055	167.85
7.0555	168.02
7.056	168.13
7.0565	168.24
7.057	168.35
7.0575	168.47
7.058	168.58
7.0585	168.69
7.059	168.80
7.0595	168.91
7.06	169.02
7.0605	169.19
7.061	169.30
7.0615	169.41
7.062	169.58
7.0625	169.75
7.063	169.86
7.0635	170.03
7.064	170.19
7.0645	170.31
7.065	170.42
7.0655	170.53
7.066	170.64
7.0665	170.75
7.067	170.86
7.0675	171.03
7.068	171.14
7.0685	171.20
7.069	171.31
7.0695	171.42
7.07	171.59
7.0705	171.70
7.071	171.81
7.0715	171.98
7.072	172.03
7.0725	172.20
7.073	172.26
7.0735	172.37
7.074	172.65
7.0745	172.81
7.075	173.04
7.0755	173.20
7.076	173.26
7.0765	173.37
7.077	173.37
7.0775	173.43
7.078	173.54
7.0785	173.59
7.079	173.71
7.0795	173.82
7.08	173.87
7.0805	173.93
7.081	173.98
7.0815	173.98
7.082	174.04
7.0825	174.15
7.083	174.15
7.0835	174.21
7.084	174.21
7.0845	174.21
7.085	174.26
7.0855	174.26
7.086	174.26
7.0865	174.26
7.087	174.21
7.0875	174.26
7.088	174.32
7.0885	174.32
7.089	174.26
7.0895	174.26
7.09	174.26
7.0905	174.26
7.091	174.26
7.0915	174.21
7.092	174.26
7.0925	174.26
7.093	174.15
7.0935	174.15
7.094	174.15
7.0945	174.21
7.095	174.26
7.0955	174.26
7.096	174.26
7.0965	174.26
7.097	174.15
7.0975	174.10
7.098	173.98
7.0985	173.93
7.099	173.87
7.0995	173.76
7.1	173.71
7.1005	173.59
7.101	173.48
7.1015	173.43
7.102	173.32
7.1025	173.20
7.103	173.09
7.1035	172.98
7.104	172.87
7.1045	172.76
7.105	172.65
7.1055	172.59
7.106	172.42
7.1065	172.26
7.107	172.09
7.1075	171.98
7.108	171.92
7.1085	171.75
7.109	171.59
7.1095	171.48
7.11	171.31
7.1105	171.14
7.111	171.03
7.1115	170.92
7.112	170.75
7.1125	170.58
7.113	170.42
7.1135	170.25
7.114	170.19
7.1145	170.19
7.115	170.14
7.1155	170.03
7.116	169.92
7.1165	169.80
7.117	169.58
7.1175	169.47
7.118	169.30
7.1185	169.14
7.119	169.08
7.1195	168.91
7.12	168.80
7.1205	168.69
7.121	168.58
7.1215	168.47
7.122	168.35
7.1225	168.30
7.123	168.13
7.1235	168.08
7.124	168.02
7.1245	167.91
7.125	167.91
7.1255	167.85
7.126	167.80
7.1265	167.63
7.127	167.57
7.1275	167.52
7.128	167.46
7.1285	167.46
7.129	167.35
7.1295	167.24
7.13	167.24
7.1305	167.18
7.131	167.18
7.1315	167.13
7.132	167.07
7.1325	167.07
7.133	167.07
7.1335	167.07
7.134	167.02
7.1345	167.07
7.135	167.18
7.1355	167.18
7.136	167.24
7.1365	167.24
7.137	167.24
7.1375	167.24
7.138	167.18
7.1385	167.24
7.139	167.24
7.1395	167.24
7.14	167.30
7.1405	167.30
7.141	167.35
7.1415	167.35
7.142	167.35
7.1425	167.41
7.143	167.41
7.1435	167.46
7.144	167.52
7.1445	167.63
7.145	167.63
7.1455	167.69
7.146	167.74
7.1465	167.80
7.147	167.85
7.1475	167.85
7.148	167.91
7.1485	167.96
7.149	167.96
7.1495	168.02
7.15	168.08
7.1505	168.13
7.151	168.13
7.1515	168.13
7.152	168.19
7.1525	168.19
7.153	168.24
7.1535	168.24
7.154	168.24
7.1545	168.19
7.155	168.30
7.1555	168.35
7.156	168.41
7.1565	168.47
7.157	168.47
7.1575	168.47
7.158	168.35
7.1585	168.30
7.159	168.24
7.1595	168.19
7.16	168.13
7.1605	168.08
7.161	168.08
7.1615	168.02
7.162	167.96
7.1625	167.91
7.163	167.80
7.1635	167.74
7.164	167.63
7.1645	167.57
7.165	167.52
7.1655	167.46
7.166	167.35
7.1665	167.30
7.167	167.13
7.1675	167.02
7.168	166.91
7.1685	166.79
7.169	166.68
7.1695	166.63
7.17	166.52
7.1705	166.40
7.171	166.29
7.1715	166.18
7.172	166.01
7.1725	165.90
7.173	165.74
7.1735	165.62
7.174	165.51
7.1745	165.35
7.175	165.35
7.1755	165.29
7.176	165.12
7.1765	165.01
7.177	164.79
7.1775	164.62
7.178	164.45
7.1785	164.17
7.179	164.06
7.1795	163.84
7.18	163.67
7.1805	163.51
7.181	163.23
7.1815	163.06
7.182	162.84
7.1825	162.61
7.183	162.45
7.1835	162.17
7.184	161.89
7.1845	161.67
7.185	161.44
7.1855	161.22
7.186	160.94
7.1865	160.66
7.187	160.38
7.1875	160.11
7.188	159.83
7.1885	159.49
7.189	159.21
7.1895	158.99
7.19	158.60
7.1905	158.27
7.191	157.99
7.1915	157.71
7.192	157.38
7.1925	157.10
7.193	156.76
7.1935	156.48
7.194	156.20
7.1945	155.98
7.195	155.70
7.1955	155.59
7.196	155.37
7.1965	155.15
7.197	154.92
7.1975	154.70
7.198	154.42
7.1985	154.14
7.199	153.86
7.1995	153.70
7.2	153.47
7.2005	153.25
7.201	153.03
7.2015	152.92
7.202	152.75
7.2025	152.58
7.203	152.36
7.2035	152.19
7.204	152.08
7.2045	151.97
7.205	151.80
7.2055	151.63
7.206	151.47
7.2065	151.36
7.207	151.24
7.2075	151.13
7.208	151.08
7.2085	151.02
7.209	150.91
7.2095	150.80
7.21	150.74
7.2105	150.69
7.211	150.63
7.2115	150.63
7.212	150.52
7.2125	150.46
7.213	150.46
7.2135	150.41
7.214	150.41
7.2145	150.35
7.215	150.41
7.2155	150.41
7.216	150.41
7.2165	150.46
7.217	150.52
7.2175	150.52
7.218	150.52
7.2185	150.58
7.219	150.58
7.2195	150.63
7.22	150.80
7.2205	150.91
7.221	150.97
7.2215	151.08
7.222	151.24
7.2225	151.36
7.223	151.58
7.2235	151.75
7.224	151.86
7.2245	152.08
7.225	152.25
7.2255	152.41
7.226	152.53
7.2265	152.80
7.227	152.97
7.2275	153.20
7.228	153.42
7.2285	153.64
7.229	153.81
7.2295	154.03
7.23	154.20
7.2305	154.42
7.231	154.64
7.2315	154.81
7.232	155.03
7.2325	155.20
7.233	155.42
7.2335	155.59
7.234	155.76
7.2345	155.93
7.235	156.15
7.2355	156.43
7.236	156.54
7.2365	156.76
7.237	156.93
7.2375	157.10
7.238	157.21
7.2385	157.32
7.239	157.49
7.2395	157.65
7.24	157.77
7.2405	157.93
7.241	158.04
7.2415	158.16
7.242	158.32
7.2425	158.43
7.243	158.55
7.2435	158.71
7.244	158.82
7.2445	158.94
7.245	159.10
7.2455	159.16
7.246	159.21
7.2465	159.38
7.247	159.49
7.2475	159.55
7.248	159.66
7.2485	159.77
7.249	159.88
7.2495	159.99
7.25	160.11
7.2505	160.22
7.251	160.27
7.2515	160.38
7.252	160.50
7.2525	160.55
7.253	160.66
7.2535	160.77
7.254	160.83
7.2545	160.89
7.255	161.05
7.2555	161.22
7.256	161.28
7.2565	161.39
7.257	161.44
7.2575	161.44
7.258	161.50
7.2585	161.50
7.259	161.56
7.2595	161.56
7.26	161.56
7.2605	161.61
7.261	161.61
7.2615	161.67
7.262	161.61
7.2625	161.56
7.263	161.56
7.2635	161.56
7.264	161.50
7.2645	161.50
7.265	161.44
7.2655	161.33
7.266	161.28
7.2665	161.22
7.267	161.17
7.2675	161.11
7.268	161.00
7.2685	160.89
7.269	160.77
7.2695	160.72
7.27	160.66
7.2705	160.50
7.271	160.44
7.2715	160.33
7.272	160.16
7.2725	160.11
7.273	159.99
7.2735	159.88
7.274	159.72
7.2745	159.60
7.275	159.60
7.2755	159.55
7.276	159.44
7.2765	159.33
7.277	159.16
7.2775	158.99
7.278	158.82
7.2785	158.71
7.279	158.55
7.2795	158.43
7.28	158.32
7.2805	158.16
7.281	158.04
7.2815	157.93
7.282	157.77
7.2825	157.65
7.283	157.54
7.2835	157.38
7.284	157.21
7.2845	157.15
7.285	156.99
7.2855	156.76
7.286	156.71
7.2865	156.65
7.287	156.48
7.2875	156.37
7.288	156.26
7.2885	156.15
7.289	156.04
7.2895	155.98
7.29	155.93
7.2905	155.81
7.291	155.76
7.2915	155.59
7.292	155.54
7.2925	155.48
7.293	155.37
7.2935	155.26
7.294	155.26
7.2945	155.09
7.295	155.09
7.2955	155.20
7.296	155.09
7.2965	155.09
7.297	155.03
7.2975	154.92
7.298	154.87
7.2985	154.87
7.299	154.81
7.2995	154.81
7.3	154.81
7.3005	154.76
7.301	154.81
7.3015	154.81
7.302	154.81
7.3025	154.87
7.303	154.87
7.3035	154.92
7.304	154.92
7.3045	155.03
7.305	155.03
7.3055	154.98
7.306	155.03
7.3065	155.15
7.307	155.20
7.3075	155.26
7.308	155.31
7.3085	155.42
7.309	155.48
7.3095	155.59
7.31	155.65
7.3105	155.76
7.311	155.81
7.3115	155.93
7.312	156.04
7.3125	156.09
7.313	156.20
7.3135	156.32
7.314	156.43
7.3145	156.48
7.315	156.71
7.3155	156.87
7.316	156.99
7.3165	157.15
7.317	157.21
7.3175	157.32
7.318	157.43
7.3185	157.49
7.319	157.65
7.3195	157.77
7.32	157.82
7.3205	157.99
7.321	158.10
7.3215	158.27
7.322	158.38
7.3225	158.49
7.323	158.66
7.3235	158.77
7.324	158.88
7.3245	158.99
7.325	159.10
7.3255	159.16
7.326	159.27
7.3265	159.44
7.327	159.55
7.3275	159.72
7.328	159.88
7.3285	159.99
7.329	160.11
7.3295	160.27
7.33	160.38
7.3305	160.55
7.331	160.66
7.3315	160.83
7.332	160.94
7.3325	161.05
7.333	161.22
7.3335	161.39
7.334	161.50
7.3345	161.61
7.335	161.72
7.3355	162.00
7.336	162.17
7.3365	162.28
7.337	162.45
7.3375	162.50
7.338	162.61
7.3385	162.73
7.339	162.78
7.3395	162.89
7.34	162.95
7.3405	163.00
7.341	163.06
7.3415	163.12
7.342	163.17
7.3425	163.23
7.343	163.28
7.3435	163.34
7.344	163.39
7.3445	163.39
7.345	163.45
7.3455	163.39
7.346	163.34
7.3465	163.39
7.347	163.45
7.3475	163.34
7.348	163.34
7.3485	163.39
7.349	163.34
7.3495	163.34
7.35	163.34
7.3505	163.39
7.351	163.34
7.3515	163.28
7.352	163.23
7.3525	163.17
7.353	163.12
7.3535	163.06
7.354	163.00
7.3545	162.89
7.355	163.00
7.3555	163.12
7.356	163.06
7.3565	163.00
7.357	163.00
7.3575	162.95
7.358	162.84
7.3585	162.78
7.359	162.73
7.3595	162.73
7.36	162.73
7.3605	162.67
7.361	162.61
7.3615	162.56
7.362	162.50
7.3625	162.50
7.363	162.50
7.3635	162.50
7.364	162.50
7.3645	162.45
7.365	162.45
7.3655	162.45
7.366	162.45
7.3665	162.45
7.367	162.45
7.3675	162.45
7.368	162.45
7.3685	162.45
7.369	162.56
7.3695	162.56
7.37	162.67
7.3705	162.73
7.371	162.73
7.3715	162.78
7.372	162.89
7.3725	162.95
7.373	163.00
7.3735	163.12
7.374	163.06
7.3745	163.17
7.375	163.51
7.3755	163.62
7.376	163.67
7.3765	163.78
7.377	163.84
7.3775	163.90
7.378	163.95
7.3785	164.06
7.379	164.17
7.3795	164.29
7.38	164.40
7.3805	164.51
7.381	164.68
7.3815	164.73
7.382	164.84
7.3825	165.01
7.383	165.18
7.3835	165.35
7.384	165.46
7.3845	165.62
7.385	165.79
7.3855	165.90
7.386	166.13
7.3865	166.29
7.387	166.52
7.3875	166.68
7.388	166.85
7.3885	167.13
7.389	167.35
7.3895	167.52
7.39	167.74
7.3905	168.02
7.391	168.24
7.3915	168.41
7.392	168.69
7.3925	168.91
7.393	169.08
7.3935	169.30
7.394	169.53
7.3945	169.92
7.395	170.25
7.3955	170.47
7.396	170.75
7.3965	170.92
7.397	171.14
7.3975	171.31
7.398	171.48
7.3985	171.64
7.399	171.87
7.3995	172.03
7.4	172.26
7.4005	172.37
7.401	172.65
7.4015	172.81
7.402	172.98
7.4025	173.20
7.403	173.32
7.4035	173.48
7.404	173.65
7.4045	173.82
7.405	173.87
7.4055	174.04
7.406	174.26
7.4065	174.37
7.407	174.49
7.4075	174.65
7.408	174.82
7.4085	174.99
7.409	175.04
7.4095	175.15
7.41	175.32
7.4105	175.43
7.411	175.60
7.4115	175.66
7.412	175.77
7.4125	175.88
7.413	175.93
7.4135	175.99
7.414	176.10
7.4145	176.44
7.415	176.44
7.4155	176.55
7.416	176.71
7.4165	176.71
7.417	176.71
7.4175	176.71
7.418	176.71
7.4185	176.71
7.419	176.71
7.4195	176.66
7.42	176.60
7.4205	176.60
7.421	176.55
7.4215	176.49
7.422	176.44
7.4225	176.38
7.423	176.27
7.4235	176.16
7.424	176.10
7.4245	175.99
7.425	175.88
7.4255	175.82
7.426	175.66
7.4265	175.54
7.427	175.43
7.4275	175.27
7.428	175.10
7.4285	174.99
7.429	174.88
7.4295	174.71
7.43	174.54
7.4305	174.37
7.431	174.21
7.4315	174.04
7.432	173.87
7.4325	173.71
7.433	173.54
7.4335	173.32
7.434	173.32
7.4345	173.20
7.435	172.98
7.4355	172.98
7.436	172.81
7.4365	172.53
7.437	172.31
7.4375	172.03
7.438	171.81
7.4385	171.59
7.439	171.31
7.4395	171.14
7.44	170.86
7.4405	170.53
7.441	170.31
7.4415	170.08
7.442	169.80
7.4425	169.53
7.443	169.30
7.4435	169.08
7.444	168.74
7.4445	168.47
7.445	168.19
7.4455	167.91
7.446	167.69
7.4465	167.41
7.447	167.18
7.4475	166.96
7.448	166.74
7.4485	166.57
7.449	166.35
7.4495	166.13
7.45	165.96
7.4505	165.79
7.451	165.62
7.4515	165.51
7.452	165.40
7.4525	165.29
7.453	165.18
7.4535	165.18
7.454	165.29
7.4545	165.23
7.455	165.35
7.4555	165.35
7.456	165.23
7.4565	165.23
7.457	165.18
7.4575	165.18
7.458	165.18
7.4585	165.18
7.459	165.23
7.4595	165.23
7.46	165.23
7.4605	165.29
7.461	165.29
7.4615	165.35
7.462	165.35
7.4625	165.29
7.463	165.29
7.4635	165.29
7.464	165.23
7.4645	165.18
7.465	165.18
7.4655	165.12
7.466	165.12
7.4665	165.12
7.467	165.01
7.4675	164.96
7.468	164.96
7.4685	164.84
7.469	164.90
7.4695	164.79
7.47	164.79
7.4705	164.73
7.471	164.68
7.4715	164.68
7.472	164.62
7.4725	164.56
7.473	164.45
7.4735	164.62
7.474	164.62
7.4745	164.62
7.475	164.68
7.4755	164.51
7.476	164.40
7.4765	164.34
7.477	164.29
7.4775	164.23
7.478	164.17
7.4785	164.17
7.479	164.12
7.4795	164.12
7.48	164.06
7.4805	164.06
7.481	164.06
7.4815	164.01
7.482	164.01
7.4825	164.01
7.483	164.06
7.4835	164.01
7.484	164.01
7.4845	164.06
7.485	164.06
7.4855	164.12
7.486	164.06
7.4865	164.12
7.487	164.12
7.4875	164.12
7.488	164.17
7.4885	164.17
7.489	164.23
7.4895	164.23
7.49	164.23
7.4905	164.29
7.491	164.34
7.4915	164.34
7.492	164.40
7.4925	164.45
7.493	164.45
7.4935	164.62
7.494	164.79
7.4945	164.79
7.495	164.96
7.4955	165.01
7.496	164.84
7.4965	164.84
7.497	164.79
7.4975	164.79
7.498	164.84
7.4985	164.84
7.499	164.84
7.4995	164.79
7.5	164.79
7.5005	164.84
7.501	164.79
7.5015	164.79
7.502	164.79
7.5025	164.73
7.503	164.73
7.5035	164.73
7.504	164.62
7.5045	164.56
7.505	164.51
7.5055	164.45
7.506	164.40
7.5065	164.40
7.507	164.34
7.5075	164.29
7.508	164.23
7.5085	164.17
7.509	164.12
7.5095	164.06
7.51	164.01
7.5105	163.95
7.511	163.90
7.5115	163.84
7.512	163.84
7.5125	163.78
7.513	163.67
7.5135	163.73
7.514	163.78
7.5145	163.67
7.515	163.78
7.5155	163.73
7.516	163.56
7.5165	163.51
7.517	163.39
7.5175	163.34
7.518	163.28
7.5185	163.23
7.519	163.12
7.5195	163.06
7.52	162.95
7.5205	162.89
7.521	162.78
7.5215	162.67
7.522	162.67
7.5225	162.50
7.523	162.45
7.5235	162.39
7.524	162.22
7.5245	162.17
7.525	162.06
7.5255	161.95
7.526	161.89
7.5265	161.83
7.527	161.78
7.5275	161.72
7.528	161.61
7.5285	161.56
7.529	161.56
7.5295	161.50
7.53	161.39
7.5305	161.33
7.531	161.33
7.5315	161.28
7.532	161.28
7.5325	161.28
7.533	161.28
7.5335	161.28
7.534	161.44
7.5345	161.56
7.535	161.56
7.5355	161.78
7.536	161.83
7.5365	161.78
7.537	161.78
7.5375	161.89
7.538	161.89
7.5385	162.06
7.539	162.17
7.5395	162.17
7.54	162.28
7.5405	162.39
7.541	162.50
7.5415	162.61
7.542	162.78
7.5425	162.89
7.543	163.00
7.5435	163.17
7.544	163.28
7.5445	163.39
7.545	163.56
7.5455	163.67
7.546	163.78
7.5465	163.90
7.547	163.95
7.5475	164.12
7.548	164.23
7.5485	164.34
7.549	164.51
7.5495	164.56
7.55	164.68
7.5505	164.79
7.551	164.84
7.5515	164.96
7.552	165.01
7.5525	165.18
7.553	165.23
7.5535	165.23
7.554	165.57
7.5545	165.74
7.555	165.85
7.5555	166.13
7.556	166.18
7.5565	166.18
7.557	166.35
7.5575	166.40
7.558	166.52
7.5585	166.68
7.559	166.79
7.5595	166.96
7.56	167.13
7.5605	167.24
7.561	167.41
7.5615	167.57
7.562	167.74
7.5625	167.91
7.563	168.02
7.5635	168.19
7.564	168.30
7.5645	168.41
7.565	168.52
7.5655	168.69
7.566	168.74
7.5665	168.86
7.567	169.02
7.5675	169.14
7.568	169.25
7.5685	169.36
7.569	169.47
7.5695	169.58
7.57	169.69
7.5705	169.80
7.571	169.92
7.5715	170.03
7.572	170.08
7.5725	170.14
7.573	170.19
7.5735	170.31
7.574	170.58
7.5745	170.64
7.575	170.81
7.5755	170.97
7.576	171.03
7.5765	171.03
7.577	171.09
7.5775	171.09
7.578	171.14
7.5785	171.20
7.579	171.25
7.5795	171.36
7.58	171.42
7.5805	171.48
7.581	171.53
7.5815	171.53
7.582	171.59
7.5825	171.59
7.583	171.59
7.5835	171.59
7.584	171.59
7.5845	171.53
7.585	171.59
7.5855	171.48
7.586	171.42
7.5865	171.42
7.587	171.36
7.5875	171.36
7.588	171.31
7.5885	171.25
7.589	171.25
7.5895	171.20
7.59	171.14
7.5905	171.03
7.591	170.97
7.5915	170.92
7.592	170.86
7.5925	170.81
7.593	170.58
7.5935	170.58
7.594	170.64
7.5945	170.53
7.595	170.53
7.5955	170.47
7.596	170.31
7.5965	170.19
7.597	169.97
7.5975	169.86
7.598	169.69
7.5985	169.53
7.599	169.36
7.5995	169.08
7.6	168.91
7.6005	168.74
7.601	168.52
7.6015	168.30
7.602	168.08
7.6025	167.85
7.603	167.63
7.6035	167.41
7.604	167.13
7.6045	166.91
7.605	166.68
7.6055	166.40
7.606	166.18
7.6065	166.01
7.607	165.74
7.6075	165.57
7.608	165.35
7.6085	165.07
7.609	164.84
7.6095	164.68
7.61	164.51
7.6105	164.29
7.611	164.12
7.6115	163.95
7.612	163.73
7.6125	163.62
7.613	163.45
7.6135	163.39
7.614	163.28
7.6145	163.17
7.615	163.17
7.6155	163.00
7.616	162.78
7.6165	162.61
7.617	162.50
7.6175	162.34
7.618	162.22
7.6185	162.06
7.619	161.95
7.6195	161.89
7.62	161.78
7.6205	161.67
7.621	161.56
7.6215	161.44
7.622	161.33
7.6225	161.28
7.623	161.22
7.6235	161.11
7.624	160.94
7.6245	160.94
7.625	160.83
7.6255	160.72
7.626	160.61
7.6265	160.55
7.627	160.50
7.6275	160.44
7.628	160.38
7.6285	160.38
7.629	160.38
7.6295	160.27
7.63	160.27
7.6305	160.27
7.631	160.27
7.6315	160.27
7.632	160.27
7.6325	160.27
7.633	160.27
7.6335	160.33
7.634	160.50
7.6345	160.55
7.635	160.61
7.6355	160.77
7.636	160.83
7.6365	160.83
7.637	160.83
7.6375	160.83
7.638	160.89
7.6385	160.94
7.639	161.00
7.6395	161.05
7.64	161.11
7.6405	161.11
7.641	161.22
7.6415	161.28
7.642	161.33
7.6425	161.39
7.643	161.44
7.6435	161.56
7.644	161.67
7.6445	161.67
7.645	161.72
7.6455	161.83
7.646	161.83
7.6465	161.83
7.647	161.95
7.6475	162.06
7.648	162.17
7.6485	162.22
7.649	162.34
7.6495	162.45
7.65	162.56
7.6505	162.61
7.651	162.73
7.6515	162.89
7.652	163.00
7.6525	163.12
7.653	163.23
7.6535	163.34
7.654	163.45
7.6545	163.73
7.655	163.95
7.6555	164.06
7.656	164.40
7.6565	164.56
7.657	164.56
7.6575	164.62
7.658	164.79
7.6585	164.90
7.659	165.07
7.6595	165.23
7.66	165.35
7.6605	165.46
7.661	165.57
7.6615	165.74
7.662	165.85
7.6625	165.96
7.663	166.13
7.6635	166.24
7.664	166.35
7.6645	166.46
7.665	166.52
7.6655	166.63
7.666	166.79
7.6665	166.74
7.667	166.79
7.6675	166.91
7.668	166.96
7.6685	167.02
7.669	167.07
7.6695	167.13
7.67	167.18
7.6705	167.30
7.671	167.30
7.6715	167.30
7.672	167.35
7.6725	167.41
7.673	167.41
7.6735	167.41
7.674	167.41
7.6745	167.35
7.675	167.46
7.6755	167.57
7.676	167.52
7.6765	167.69
7.677	167.74
7.6775	167.57
7.678	167.52
7.6785	167.52
7.679	167.41
7.6795	167.41
7.68	167.35
7.6805	167.30
7.681	167.24
7.6815	167.18
7.682	167.13
7.6825	167.02
7.683	166.96
7.6835	166.85
7.684	166.74
7.6845	166.63
7.685	166.57
7.6855	166.46
7.686	166.35
7.6865	166.24
7.687	166.01
7.6875	165.90
7.688	165.74
7.6885	165.57
7.689	165.40
7.6895	165.29
7.69	165.18
7.6905	165.01
7.691	164.90
7.6915	164.73
7.692	164.56
7.6925	164.40
7.693	164.23
7.6935	164.12
7.694	163.95
7.6945	163.73
7.695	163.73
7.6955	163.67
7.696	163.51
7.6965	163.56
7.697	163.39
7.6975	163.12
7.698	162.89
7.6985	162.78
7.699	162.67
7.6995	162.50
7.7	162.34
7.7005	162.17
7.701	162.06
7.7015	161.95
7.702	161.78
7.7025	161.61
7.703	161.50
7.7035	161.28
7.704	161.17
7.7045	161.05
7.705	160.94
7.7055	160.77
7.706	160.72
7.7065	160.55
7.707	160.38
7.7075	160.22
7.708	160.16
7.7085	160.05
7.709	159.99
7.7095	159.88
7.71	159.83
7.7105	159.72
7.711	159.66
7.7115	159.60
7.712	159.55
7.7125	159.55
7.713	159.49
7.7135	159.44
7.714	159.44
7.7145	159.44
7.715	159.60
7.7155	159.66
7.716	159.66
7.7165	159.83
7.717	159.83
7.7175	159.77
7.718	159.83
7.7185	159.88
7.719	159.94
7.7195	159.94
7.72	160.05
7.7205	160.11
7.721	160.16
7.7215	160.22
7.722	160.33
7.7225	160.38
7.723	160.50
7.7235	160.55
7.724	160.61
7.7245	160.66
7.725	160.72
7.7255	160.77
7.726	160.89
7.7265	160.89
7.727	160.89
7.7275	160.94
7.728	161.05
7.7285	161.11
7.729	161.22
7.7295	161.33
7.73	161.39
7.7305	161.44
7.731	161.56
7.7315	161.61
7.732	161.72
7.7325	161.78
7.733	161.89
7.7335	162.00
7.734	162.06
7.7345	162.17
7.735	162.17
7.7355	162.39
7.736	162.61
7.7365	162.67
7.737	162.95
7.7375	163.06
7.738	163.00
7.7385	163.12
7.739	163.17
7.7395	163.28
7.74	163.39
7.7405	163.51
7.741	163.62
7.7415	163.73
7.742	163.84
7.7425	163.95
7.743	164.06
7.7435	164.17
7.744	164.29
7.7445	164.40
7.745	164.56
7.7455	164.62
7.746	164.68
7.7465	164.79
7.747	164.90
7.7475	164.96
7.748	164.96
7.7485	165.07
7.749	165.18
7.7495	165.29
7.75	165.35
7.7505	165.40
7.751	165.51
7.7515	165.51
7.752	165.57
7.7525	165.62
7.753	165.68
7.7535	165.74
7.754	165.74
7.7545	165.79
7.755	165.85
7.7555	165.85
7.756	165.96
7.7565	166.07
7.757	166.01
7.7575	166.18
7.758	166.18
7.7585	166.01
7.759	165.96
7.7595	165.96
7.76	165.90
7.7605	165.85
7.761	165.85
7.7615	165.74
7.762	165.68
7.7625	165.62
7.763	165.51
7.7635	165.46
7.764	165.35
7.7645	165.29
7.765	165.18
7.7655	165.12
7.766	165.07
7.7665	164.90
7.767	164.84
7.7675	164.73
7.768	164.56
7.7685	164.40
7.769	164.29
7.7695	164.23
7.77	164.12
7.7705	164.01
7.771	163.90
7.7715	163.73
7.772	163.62
7.7725	163.45
7.773	163.34
7.7735	163.23
7.774	163.12
7.7745	163.00
7.775	162.78
7.7755	162.73
7.776	162.84
7.7765	162.67
7.777	162.56
7.7775	162.56
7.778	162.28
7.7785	162.06
7.779	161.89
7.7795	161.78
7.78	161.61
7.7805	161.44
7.781	161.28
7.7815	161.11
7.782	160.94
7.7825	160.83
7.783	160.66
7.7835	160.50
7.784	160.33
7.7845	160.22
7.785	160.05
7.7855	159.88
7.786	159.77
7.7865	159.60
7.787	159.49
7.7875	159.33
7.788	159.10
7.7885	158.94
7.789	158.88
7.7895	158.77
7.79	158.60
7.7905	158.55
7.791	158.43
7.7915	158.38
7.792	158.27
7.7925	158.16
7.793	158.04
7.7935	157.99
7.794	157.93
7.7945	157.88
7.795	157.82
7.7955	157.71
7.796	157.71
7.7965	157.82
7.797	157.71
7.7975	157.71
7.798	157.88
7.7985	157.71
7.799	157.60
7.7995	157.54
7.8	157.54
7.8005	157.54
7.801	157.54
7.8015	157.54
7.802	157.54
7.8025	157.49
7.803	157.49
7.8035	157.49
7.804	157.49
7.8045	157.49
7.805	157.49
7.8055	157.49
7.806	157.49
7.8065	157.49
7.807	157.49
7.8075	157.54
7.808	157.49
7.8085	157.43
7.809	157.43
7.8095	157.49
7.81	157.54
7.8105	157.60
7.811	157.60
7.8115	157.65
7.812	157.71
7.8125	157.77
7.813	157.82
7.8135	157.93
7.814	157.99
7.8145	158.10
7.815	158.16
7.8155	158.27
7.816	158.38
7.8165	158.49
7.817	158.77
7.8175	158.88
7.818	159.10
7.8185	159.27
7.819	159.27
7.8195	159.38
7.82	159.49
7.8205	159.66
7.821	159.77
7.8215	159.88
7.822	160.05
7.8225	160.22
7.823	160.38
7.8235	160.50
7.824	160.61
7.8245	160.77
7.825	160.89
7.8255	161.05
7.826	161.11
7.8265	161.28
7.827	161.39
7.8275	161.44
7.828	161.61
7.8285	161.67
7.829	161.72
7.8295	161.83
7.83	161.95
7.8305	162.06
7.831	162.17
7.8315	162.22
7.832	162.34
7.8325	162.39
7.833	162.45
7.8335	162.56
7.834	162.61
7.8345	162.67
7.835	162.78
7.8355	162.84
7.836	162.89
7.8365	162.89
7.837	163.00
7.8375	163.17
7.838	163.17
7.8385	163.34
7.839	163.39
7.8395	163.28
7.84	163.28
7.8405	163.28
7.841	163.28
7.8415	163.28
7.842	163.28
7.8425	163.28
7.843	163.28
7.8435	163.28
7.844	163.34
7.8445	163.28
7.845	163.28
7.8455	163.28
7.846	163.28
7.8465	163.23
7.847	163.17
7.8475	163.12
7.848	163.06
7.8485	163.12
7.849	163.00
7.8495	162.89
7.85	162.84
7.8505	162.78
7.851	162.78
7.8515	162.73
7.852	162.67
7.8525	162.61
7.853	162.50
7.8535	162.50
7.854	162.39
7.8545	162.34
7.855	162.28
7.8555	162.22
7.856	162.22
7.8565	162.17
7.857	162.06
7.8575	162.11
7.858	162.11
7.8585	162.00
7.859	162.06
7.8595	162.00
7.86	161.83
7.8605	161.67
7.861	161.56
7.8615	161.50
7.862	161.44
7.8625	161.39
7.863	161.28
7.8635	161.17
7.864	161.05
7.8645	160.94
7.865	160.89
7.8655	160.83
7.866	160.72
7.8665	160.66
7.867	160.50
7.8675	160.44
7.868	160.33
7.8685	160.27
7.869	160.22
7.8695	159.99
7.87	159.94
7.8705	159.88
7.871	159.77
7.8715	159.72
7.872	159.66
7.8725	159.55
7.873	159.49
7.8735	159.38
7.874	159.33
7.8745	159.27
7.875	159.21
7.8755	159.16
7.876	159.10
7.8765	159.05
7.877	158.94
7.8775	158.94
7.878	159.10
7.8785	158.99
7.879	158.94
7.8795	158.99
7.88	158.88
7.8805	158.77
7.881	158.71
7.8815	158.60
7.882	158.60
7.8825	158.49
7.883	158.49
7.8835	158.43
7.884	158.38
7.8845	158.32
7.885	158.27
7.8855	158.21
7.886	158.10
7.8865	158.16
7.887	158.10
7.8875	157.99
7.888	157.99
7.8885	157.93
7.889	157.93
7.8895	157.82
7.89	157.77
7.8905	157.77
7.891	157.77
7.8915	157.71
7.892	157.71
7.8925	157.71
7.893	157.65
7.8935	157.65
7.894	157.65
7.8945	157.65
7.895	157.65
7.8955	157.65
7.896	157.65
7.8965	157.65
7.897	157.65
7.8975	157.82
7.898	157.88
7.8985	157.82
7.899	157.99
7.8995	157.93
7.9	157.88
7.9005	157.88
7.901	157.82
7.9015	157.88
7.902	157.88
7.9025	157.88
7.903	157.88
7.9035	157.93
7.904	157.93
7.9045	157.93
7.905	157.93
7.9055	157.88
7.906	157.93
7.9065	157.93
7.907	157.88
7.9075	157.88
7.908	157.88
7.9085	157.93
7.909	157.82
7.9095	157.77
7.91	157.77
7.9105	157.71
7.911	157.71
7.9115	157.71
7.912	157.71
7.9125	157.65
7.913	157.65
7.9135	157.65
7.914	157.60
7.9145	157.60
7.915	157.54
7.9155	157.49
7.916	157.49
7.9165	157.43
7.917	157.49
7.9175	157.49
7.918	157.43
7.9185	157.49
7.919	157.38
7.9195	157.26
7.92	157.15
7.9205	157.10
7.921	157.04
7.9215	156.99
7.922	156.87
7.9225	156.76
7.923	156.71
7.9235	156.59
7.924	156.48
7.9245	156.43
7.925	156.26
7.9255	156.20
7.926	156.09
7.9265	155.98
7.927	155.87
7.9275	155.76
7.928	155.65
7.9285	155.54
7.929	155.42
7.9295	155.26
7.93	155.15
7.9305	155.09
7.931	154.98
7.9315	154.92
7.932	154.81
7.9325	154.70
7.933	154.64
7.9335	154.53
7.934	154.48
7.9345	154.42
7.935	154.25
7.9355	154.25
7.936	154.09
7.9365	154.09
7.937	154.14
7.9375	154.03
7.938	154.09
7.9385	154.09
7.939	153.92
7.9395	153.86
7.94	153.81
7.9405	153.75
7.941	153.64
7.9415	153.64
7.942	153.64
7.9425	153.59
7.943	153.53
7.9435	153.47
7.944	153.47
7.9445	153.42
7.945	153.42
7.9455	153.36
7.946	153.31
7.9465	153.31
7.947	153.25
7.9475	153.25
7.948	153.20
7.9485	153.14
7.949	153.08
7.9495	153.08
7.95	153.08
7.9505	153.08
7.951	153.08
7.9515	153.03
7.952	153.08
7.9525	153.08
7.953	153.08
7.9535	153.14
7.954	153.14
7.9545	153.14
7.955	153.20
7.9555	153.20
7.956	153.25
7.9565	153.47
7.957	153.42
7.9575	153.59
7.958	153.75
7.9585	153.64
7.959	153.64
7.9595	153.75
7.96	153.75
7.9605	153.81
7.961	153.86
7.9615	153.92
7.962	153.98
7.9625	154.03
7.963	154.09
7.9635	154.14
7.964	154.20
7.9645	154.31
7.965	154.37
7.9655	154.37
7.966	154.42
7.9665	154.48
7.967	154.53
7.9675	154.59
7.968	154.53
7.9685	154.59
7.969	154.64
7.9695	154.70
7.97	154.76
7.9705	154.87
7.971	154.92
7.9715	154.98
7.972	154.98
7.9725	155.03
7.973	155.03
7.9735	155.09
7.974	155.09
7.9745	155.15
7.975	155.20
7.9755	155.20
7.976	155.37
7.9765	155.31
7.977	155.42
7.9775	155.54
7.978	155.48
7.9785	155.48
7.979	155.48
7.9795	155.54
7.98	155.54
7.9805	155.54
7.981	155.59
7.9815	155.59
7.982	155.59
7.9825	155.65
7.983	155.65
7.9835	155.65
7.984	155.65
7.9845	155.70
7.985	155.70
7.9855	155.70
7.986	155.76
7.9865	155.76
7.987	155.81
7.9875	155.76
7.988	155.76
7.9885	155.81
7.989	155.81
7.9895	155.87
7.99	155.87
7.9905	155.87
7.991	155.87
7.9915	155.87
7.992	155.87
7.9925	155.93
7.993	155.93
7.9935	155.87
7.994	155.93
7.9945	155.87
7.995	155.87
7.9955	155.98
7.996	155.98
7.9965	156.04
7.997	156.15
7.9975	156.04
7.998	155.93
7.9985	155.87
7.999	155.87
7.9995	155.81
8	155.81
8.0005	155.76
8.001	155.70
8.0015	155.70
8.002	155.65
8.0025	155.59
8.003	155.54
8.0035	155.48
8.004	155.54
8.0045	155.42
8.005	155.37
8.0055	155.31
8.006	155.20
8.0065	155.15
8.007	155.09
8.0075	154.98
8.008	154.87
8.0085	154.81
8.009	154.76
8.0095	154.70
8.01	154.64
8.0105	154.59
8.011	154.53
8.0115	154.53
8.012	154.48
8.0125	154.42
8.013	154.37
8.0135	154.25
8.014	154.20
8.0145	154.20
8.015	154.03
8.0155	154.09
8.016	154.14
8.0165	154.03
8.017	154.09
8.0175	154.09
8.018	153.92
8.0185	153.86
8.019	153.81
8.0195	153.75
8.02	153.70
8.0205	153.70
8.021	153.64
8.0215	153.64
8.022	153.59
8.0225	153.53
8.023	153.59
8.0235	153.53
8.024	153.53
8.0245	153.53
8.025	153.47
8.0255	153.53
8.026	153.47
8.0265	153.47
8.027	153.53
8.0275	153.47
8.028	153.42
8.0285	153.47
8.029	153.53
8.0295	153.53
8.03	153.53
8.0305	153.59
8.031	153.59
8.0315	153.64
8.032	153.64
8.0325	153.70
8.033	153.75
8.0335	153.81
8.034	153.81
8.0345	153.86
8.035	153.92
8.0355	153.86
8.036	154.09
8.0365	154.14
8.037	154.09
8.0375	154.31
8.038	154.25
8.0385	154.25
8.039	154.25
8.0395	154.25
8.04	154.25
8.0405	154.31
8.041	154.31
8.0415	154.31
8.042	154.37
8.0425	154.42
8.043	154.42
8.0435	154.42
8.044	154.42
8.0445	154.48
8.045	154.42
8.0455	154.42
8.046	154.42
8.0465	154.37
8.047	154.42
8.0475	154.42
8.048	154.37
8.0485	154.37
8.049	154.37
8.0495	154.42
8.05	154.42
8.0505	154.42
8.051	154.48
8.0515	154.48
8.052	154.53
8.0525	154.53
8.053	154.53
8.0535	154.53
8.054	154.48
8.0545	154.53
8.055	154.48
8.0555	154.59
8.056	154.70
8.0565	154.64
8.057	154.76
8.0575	154.76
8.058	154.64
8.0585	154.64
8.059	154.64
8.0595	154.70
8.06	154.70
8.0605	154.70
8.061	154.70
8.0615	154.70
8.062	154.70
8.0625	154.76
8.063	154.76
8.0635	154.81
8.064	154.81
8.0645	154.87
8.065	154.87
8.0655	154.81
8.066	154.87
8.0665	154.98
8.067	154.92
8.0675	154.87
8.068	154.92
8.0685	154.92
8.069	154.92
8.0695	154.98
8.07	155.03
8.0705	155.03
8.071	155.03
8.0715	155.09
8.072	155.09
8.0725	155.09
8.073	155.09
8.0735	155.03
8.074	155.09
8.0745	155.03
8.075	155.09
8.0755	155.20
8.076	155.15
8.0765	155.20
8.077	155.20
8.0775	155.15
8.078	155.09
8.0785	155.03
8.079	154.98
8.0795	154.98
8.08	154.92
8.0805	154.92
8.081	154.87
8.0815	154.81
8.082	154.76
8.0825	154.70
8.083	154.59
8.0835	154.59
8.084	154.53
8.0845	154.42
8.085	154.37
8.0855	154.25
8.086	154.20
8.0865	154.14
8.087	153.98
8.0875	153.92
8.088	153.86
8.0885	153.81
8.089	153.70
8.0895	153.70
8.09	153.64
8.0905	153.53
8.091	153.47
8.0915	153.42
8.092	153.36
8.0925	153.31
8.093	153.20
8.0935	153.14
8.094	153.08
8.0945	153.03
8.095	153.08
8.0955	153.03
8.096	153.03
8.0965	153.08
8.097	152.92
8.0975	152.80
8.098	152.75
8.0985	152.64
8.099	152.58
8.0995	152.58
8.1	152.53
8.1005	152.41
8.101	152.41
8.1015	152.36
8.102	152.30
8.1025	152.25
8.103	152.19
8.1035	152.19
8.104	152.14
8.1045	152.08
8.105	152.02
8.1055	151.97
8.106	151.91
8.1065	151.86
8.107	151.80
8.1075	151.80
8.108	151.80
8.1085	151.75
8.109	151.75
8.1095	151.75
8.11	151.80
8.1105	151.80
8.111	151.86
8.1115	151.86
8.112	151.86
8.1125	151.91
8.113	151.97
8.1135	152.02
8.114	152.08
8.1145	152.14
8.115	152.25
8.1155	152.41
8.116	152.47
8.1165	152.64
8.117	152.75
8.1175	152.69
8.118	152.80
8.1185	152.86
8.119	152.97
8.1195	153.03
8.12	153.08
8.1205	153.20
8.121	153.25
8.1215	153.31
8.122	153.42
8.1225	153.47
8.123	153.53
8.1235	153.59
8.124	153.64
8.1245	153.70
8.125	153.70
8.1255	153.81
8.126	153.92
8.1265	153.98
8.127	153.98
8.1275	153.92
8.128	153.98
8.1285	154.03
8.129	154.09
8.1295	154.14
8.13	154.14
8.1305	154.20
8.131	154.25
8.1315	154.31
8.132	154.37
8.1325	154.42
8.133	154.48
8.1335	154.59
8.134	154.64
8.1345	154.70
8.135	154.70
8.1355	154.87
8.136	155.03
8.1365	155.09
8.137	155.26
8.1375	155.31
8.138	155.26
8.1385	155.31
8.139	155.31
8.1395	155.42
8.14	155.48
8.1405	155.54
8.141	155.59
8.1415	155.65
8.142	155.70
8.1425	155.76
8.143	155.81
8.1435	155.81
8.144	155.93
8.1445	155.93
8.145	155.93
8.1455	155.93
8.146	155.98
8.1465	155.98
8.147	156.04
8.1475	155.98
8.148	155.98
8.1485	156.04
8.149	156.04
8.1495	156.04
8.15	156.04
8.1505	156.15
8.151	156.15
8.1515	156.15
8.152	156.20
8.1525	156.20
8.153	156.20
8.1535	156.15
8.154	156.15
8.1545	156.15
8.155	156.09
8.1555	156.20
8.156	156.26
8.1565	156.26
8.157	156.32
8.1575	156.20
8.158	156.15
8.1585	156.15
8.159	156.09
8.1595	156.09
8.16	156.04
8.1605	156.04
8.161	156.04
8.1615	155.98
8.162	155.98
8.1625	155.93
8.163	155.87
8.1635	155.87
8.164	155.87
8.1645	155.81
8.165	155.70
8.1655	155.65
8.166	155.65
8.1665	155.54
8.167	155.48
8.1675	155.42
8.168	155.37
8.1685	155.31
8.169	155.31
8.1695	155.26
8.17	155.20
8.1705	155.15
8.171	155.15
8.1715	155.09
8.172	155.03
8.1725	154.98
8.173	154.98
8.1735	154.92
8.174	154.92
8.1745	154.81
8.175	154.81
8.1755	154.92
8.176	154.87
8.1765	154.98
8.177	154.87
8.1775	154.81
8.178	154.76
8.1785	154.70
