	0.306372	0.130958
	0.307030	
	0.314266	
	0.314266	
	0.332028	
	0.334002	
	0.350612	
	0.386136	
	0.394359	
	0.450604	
	0.498462	
	0.536782	
	0.552570	
	0.561122	
	0.571648	
	0.579871	
	0.580693	
	0.587436	
	0.587929	
	0.594343	
	0.588751	
	0.582831	
	0.582009	
	0.575101	
	0.568029	
	0.557010	
	0.539907	
	0.521980	
	0.495996	
	0.422482	
	0.398141	
	0.348639	
	0.324627	
	0.312622	
	0.297163	
	0.289104	
	0.284006	
	0.274960	
	0.281868	
	0.282361	
	0.293873	
	0.307195	
	0.317062	
	0.318871	
	0.329232	
	0.329397	
	0.350941	
	0.354888	
	0.388109	
	0.434158	
	0.495338	
	0.530368	
	0.553228	
	0.564905	
	0.570167	
	0.575595	
	0.573292	
	0.581515	
	0.578226	
	0.582666	
	0.579542	
	0.576088	
	0.570003	
	0.565891	
	0.555695	
	0.556353	
	0.549445	
	0.547143	
	0.522145	
	0.500107	
	0.489253	
	0.389096	
	0.350448	
	0.328410	
	0.319694	
	0.304070	
	0.299136	
	0.292558	
	0.299629	
	0.302590	
	0.304234	
	0.303248	
	0.304399	
	0.312128	
	0.314266	
	0.317227	
	0.345843	
	0.373143	
	0.399293	
	0.466228	
	0.488101	
	0.529874	
	0.546814	
	0.561122	
	0.565891	
	0.572470	
	0.574772	
	0.585791	
	0.578884	
	0.584640	
	0.580693	0.051347
	0.578884	
	0.570990	
	0.567372	
	0.556682	
	0.553228	
	0.536782	
	0.522145	
	0.490239	
	0.421166	
	0.394852	
	0.365907	
	0.337127	
	0.329726	
	0.323641	
	0.306372	
	0.300452	
	0.286637	
	0.289762	
	0.293544	
	0.297656	
	0.300452	
	0.306866	
	0.315418	
	0.328739	
	0.336140	
	0.355875	
	0.388438	
	0.424291	
	0.494022	
	0.503396	
	0.533328	
	0.551583	
	0.556353	
	0.559477	
	0.562931	
	0.569674	
	0.583489	
	0.575101	
	0.576746	
	0.571154	
	0.575759	
	0.574443	
	0.571483	
	0.552899	
	0.552241	
	0.537933	
	0.524283	
	0.503890	
	0.479385	
	0.422153	
	0.358835	
	0.340416	
	0.327917	
	0.315418	
	0.315747	
	0.310484	
	0.294367	
	0.296176	
	0.287788	
	0.294531	
	0.300781	
	0.298972	
	0.308675	
	0.328081	
	0.334989	
	0.361302	
	0.379557	
	0.437119	
	0.477247	
	0.486621	
	0.520336	
	0.536617	
	0.558491	
	0.565562	
	0.572634	
	0.570496	
	0.579377	
	0.582337	
	0.583818	
	0.582173	
	0.579048	
	0.580857	
	0.571319	
	0.558655	
	0.551748	
	0.540729	
	0.516718	
	0.505699	
	0.484977	
	0.442546	
	0.363276	
	0.335482	
	0.315911	
	0.307359	
	0.303412	
	0.303248	
	0.294860	
	0.293380	
	0.293380	
	0.301439	0.038456
	0.301110	
	0.313938	
	0.316569	
	0.328903	
	0.335646	
	0.349790	
	0.386794	
	0.408502	
	0.458992	
	0.482016	
	0.530532	
	0.554215	
	0.560300	
	0.564576	
	0.567865	
	0.573128	
	0.581022	
	0.579213	
	0.584804	
	0.582995	
	0.580364	
	0.576252	
	0.564905	
	0.550925	
	0.552077	
	0.535631	
	0.526421	
	0.510139	
	0.486128	
	0.420508	
	0.359493	
	0.343047	
	0.323312	
	0.315911	
	0.308346	
	0.309497	
	0.295518	
	0.296011	
	0.294860	
	0.294202	
	0.294696	
	0.300945	
	0.308510	
	0.321009	
	0.326272	
	0.341238	
	0.356204	
	0.397484	
	0.451427	
	0.489088	
	0.539084	
	0.553721	
	0.559477	
	0.565234	
	0.569181	
	0.571976	
	0.581680	
	0.585791	
	0.586942	
	0.582337	
	0.579706	
	0.575595	
	0.573621	
	0.569345	
	0.564576	
	0.540236	
	0.532177	
	0.494515	
	0.444519	
	0.413436	
	0.362125	
	0.334824	
	0.316898	
	0.307688	
	0.302919	
	0.303412	
	0.291078	
	0.293544	
	0.289597	
	0.290913	
	0.294531	
	0.296834	
	0.311306	
	0.329726	
	0.337620	
	0.349461	
	0.378571	
	0.420508	
	0.472642	
	0.513264	
	0.532835	
	0.549774	
	0.562602	
	0.570825	
	0.574443	
	0.578390	
	0.584969	
	0.585627	
	0.590232	
	0.590560	0.030397
	0.586285	
	0.583160	
	0.575923	
	0.566220	
	0.561780	
	0.551254	
	0.541716	
	0.521487	
	0.490733	
	0.442217	
	0.371663	
	0.352915	
	0.328081	
	0.322490	
	0.316404	
	0.311964	
	0.303741	
	0.306701	
	0.300452	
	0.292887	
	0.294531	
	0.297163	
	0.305057	
	0.319529	
	0.323147	
	0.335317	
	0.353244	
	0.369196	
	0.404391	
	0.477905	
	0.525927	
	0.535302	
	0.545005	
	0.555859	
	0.568029	
	0.567207	
	0.582009	
	0.580199	
	0.582666	
	0.582173	
	0.583653	
	0.580035	
	0.574608	
	0.560300	
	0.560958	
	0.541387	
	0.526914	
	0.489746	
	0.444355	
	0.414259	
	0.350448	
	0.334002	
	0.317391	
	0.311306	
	0.303248	
	0.297985	
	0.290255	
	0.294038	
	0.294696	
	0.298314	
	0.308017	
	0.311471	
	0.319200	
	0.331370	
	0.330548	
	0.361467	
	0.368210	
	0.423797	
	0.481852	
	0.490075	
	0.531190	
	0.540400	
	0.551090	
	0.560958	
	0.567536	
	0.571648	
	0.581515	
	0.580364	
	0.579706	
	0.577897	
	0.575266	
	0.572305	
	0.567536	
	0.554708	
	0.550268	
	0.545169	
	0.534973	
	0.511784	
	0.471984	
	0.414423	
	0.350448	
	0.339264	
	0.326272	
	0.318542	
	0.311471	
	0.307688	
	0.291406	
	0.291078	
	0.285157	
	0.293544	0.029610
	0.297820	
	0.300287	
	0.307030	
	0.323805	
	0.321174	
	0.352586	
	0.375775	
	0.419521	
	0.464419	
	0.490897	
	0.526256	
	0.534644	
	0.555201	
	0.563753	
	0.563589	
	0.566385	
	0.579377	
	0.583818	
	0.588094	
	0.585133	
	0.583324	
	0.581022	
	0.575101	
	0.564576	
	0.563424	
	0.552406	
	0.539413	
	0.505370	
	0.480536	
	0.434652	
	0.376268	
	0.350448	
	0.331041	
	0.320845	
	0.310648	
	0.302096	
	0.292722	
	0.288611	
	0.281703	
	0.287953	
	0.293544	
	0.299465	
	0.304728	
	0.311964	
	0.309826	
	0.329232	
	0.337455	
	0.360480	
	0.402746	
	0.474287	
	0.530368	
	0.542538	
	0.559148	
	0.566549	
	0.573128	
	0.573128	
	0.585956	
	0.581351	
	0.585298	
	0.586449	
	0.581680	
	0.580364	
	0.576417	
	0.562273	
	0.556353	
	0.541387	
	0.534973	
	0.519185	
	0.515237	
	0.492049	
	0.418699	
	0.386300	
	0.346830	
	0.341238	
	0.321174	
	0.315911	
	0.295847	
	0.293051	
	0.292393	
	0.290584	
	0.297491	
	0.297656	
	0.305057	
	0.318049	
	0.317556	
	0.344692	
	0.356533	
	0.391234	
	0.441230	
	0.465735	
	0.514909	
	0.535137	
	0.549281	
	0.557668	
	0.564576	
	0.568852	
	0.577733	
	0.581022	
	0.580528	
	0.582666	0.023892
	0.578555	
	0.577568	
	0.571154	
	0.564082	
	0.561451	
	0.537440	
	0.525598	
	0.493035	
	0.457841	
	0.415245	
	0.364263	
	0.349297	
	0.322818	
	0.318542	
	0.310977	
	0.312457	
	0.297820	
	0.295189	
	0.288940	
	0.289433	
	0.293051	
	0.300945	
	0.306043	
	0.319694	
	0.328575	
	0.346994	
	0.366401	
	0.369361	
	0.419850	
	0.458005	
	0.516718	
	0.535302	
	0.557504	
	0.558655	
	0.568523	
	0.570990	
	0.575759	
	0.578719	
	0.579706	
	0.578061	
	0.580199	
	0.579377	
	0.582337	
	0.577897	
	0.570167	
	0.554215	
	0.546156	
	0.526092	
	0.511455	
	0.480701	
	0.386794	
	0.365743	
	0.330548	
	0.331206	
	0.329232	
	0.321832	
	0.305221	
	0.297491	
	0.284170	
	0.288117	
	0.295518	
	0.297985	
	0.306372	
	0.326437	
	0.327094	
	0.339100	
	0.357191	
	0.387451	
	0.430211	
	0.480865	
	0.517047	
	0.535466	
	0.552406	
	0.564082	
	0.565891	
	0.568194	
	0.577404	
	0.580693	
	0.584640	
	0.581022	
	0.578719	
	0.574937	
	0.573785	
	0.562767	
	0.553228	
	0.536288	
	0.525105	
	0.493529	
	0.437283	
	0.393537	
	0.355053	
	0.338607	
	0.318542	
	0.311635	
	0.312128	
	0.306043	
	0.301767	
	0.296340	
	0.291735	
	0.296998	0.027658
	0.301932	
	0.303412	
	0.305550	
	0.321009	
	0.330877	
	0.355875	
	0.368374	
	0.392385	
	0.420673	
	0.473136	
	0.520829	
	0.541222	
	0.550103	
	0.560300	
	0.564247	
	0.570990	
	0.581680	
	0.582009	
	0.585298	
	0.585298	
	0.579871	
	0.579542	
	0.574608	
	0.563753	
	0.564411	
	0.544347	
	0.538591	
	0.518856	
	0.482674	
	0.446986	
	0.367716	
	0.355053	
	0.326930	
	0.313773	
	0.306701	
	0.309168	
	0.293380	
	0.293380	
	0.294860	
	0.290749	
	0.300616	
	0.301932	
	0.308839	
	0.316076	
	0.317227	
	0.338771	
	0.352586	
	0.403569	
	0.485141	
	0.505534	
	0.536946	
	0.550597	
	0.563260	
	0.568029	
	0.573950	
	0.573785	
	0.583818	
	0.587929	
	0.587929	
	0.585298	
	0.585298	
	0.580528	
	0.571483	
	0.562109	
	0.557175	
	0.542209	
	0.522309	
	0.500272	
	0.466886	
	0.411134	
	0.371663	
	0.340745	
	0.321009	
	0.318049	
	0.308346	
	0.300452	
	0.291078	
	0.287953	
	0.286966	
	0.292887	
	0.302590	
	0.303905	
	0.308017	
	0.323147	
	0.328246	
	0.348310	
	0.366565	
	0.420508	
	0.474945	
	0.488759	
	0.529546	
	0.541058	
	0.557504	
	0.557504	
	0.564576	
	0.568358	
	0.580199	
	0.583160	
	0.585956	
	0.581022	0.022384
	0.576910	
	0.574279	
	0.570003	
	0.559313	
	0.550925	
	0.542538	
	0.537275	
	0.510797	
	0.470340	
	0.404884	
	0.365085	
	0.363769	
	0.340580	
	0.326437	
	0.317556	
	0.311306	
	0.300287	
	0.296505	
	0.294038	
	0.287295	
	0.295847	
	0.295189	
	0.296669	
	0.311800	
	0.324299	
	0.347159	
	0.363769	
	0.409325	
	0.462774	
	0.487773	
	0.519678	
	0.535466	
	0.551912	
	0.553886	
	0.565398	
	0.574443	
	0.578061	
	0.581515	
	0.578226	
	0.579048	
	0.579542	
	0.573621	
	0.564905	
	0.554873	
	0.553886	
	0.548623	
	0.546978	
	0.522474	
	0.479549	
	0.417548	
	0.382353	
	0.352586	
	0.325943	
	0.320516	
	0.306701	
	0.303083	
	0.296176	
	0.292393	
	0.290255	
	0.295025	
	0.298807	
	0.297163	
	0.306866	
	0.321996	
	0.328739	
	0.343869	
	0.355711	
	0.382847	
	0.419357	
	0.478069	
	0.528394	
	0.539249	
	0.553886	
	0.564082	
	0.567700	
	0.573457	
	0.581351	
	0.585298	
	0.590067	
	0.584311	
	0.582666	
	0.579377	
	0.574772	
	0.563589	
	0.556682	
	0.547801	
	0.532506	
	0.522145	
	0.507343	
	0.474287	
	0.400444	
	0.372486	
	0.337784	
	0.322325	
	0.313280	
	0.311964	
	0.307030	
	0.295847	
	0.293709	
	0.296011	0.026547
	0.297656	
	0.295518	
	0.306866	
	0.320187	
	0.328410	
	0.367881	
	0.422317	
	0.476754	
	0.499449	
	0.504383	
	0.516060	
	0.531519	
	0.545827	
	0.555366	
	0.564576	
	0.569510	
	0.580364	
	0.582831	
	0.581844	
	0.579542	
	0.574772	
	0.572634	
	0.570003	
	0.557997	
	0.554873	
	0.540400	
	0.534150	
	0.499449	
	0.441066	
	0.396003	
	0.361960	
	0.348474	
	0.314760	
	0.310977	
	0.303083	
	0.302919	
	0.296340	
	0.294202	
	0.291735	
	0.298149	
	0.296998	
	0.300123	
	0.308839	
	0.333837	
	0.334660	
	0.349132	
	0.351599	
	0.372814	
	0.438434	
	0.485306	
	0.518527	
	0.540071	
	0.552735	
	0.561780	
	0.561286	
	0.566549	
	0.578555	
	0.584311	
	0.584969	
	0.581186	
	0.574608	
	0.572634	
	0.565398	
	0.561615	
	0.552406	
	0.541387	
	0.530532	
	0.509646	
	0.486457	
	0.453894	
	0.379393	
	0.352586	
	0.332193	
	0.321338	
	0.309990	
	0.304070	
	0.296669	
	0.290091	
	0.289597	
	0.287130	
	0.294038	
	0.294531	
	0.302096	
	0.314924	
	0.318871	
	0.332851	
	0.355053	
	0.383998	
	0.463268	
	0.500929	
	0.530861	
	0.546485	
	0.562767	
	0.569510	
	0.573292	
	0.569016	
	0.573457	
	0.577075	
	0.576746	
	0.574937	0.025991
	0.570167	
	0.571154	
	0.569510	
	0.560629	
	0.555859	
	0.547143	
	0.538426	
	0.519349	
	0.462939	
	0.398306	
	0.353079	
	0.339429	
	0.318049	
	0.316733	
	0.312293	
	0.305715	
	0.299301	
	0.296669	
	0.291406	
	0.287295	
	0.292558	
	0.299465	
	0.303248	
	0.316898	
	0.322654	
	0.345185	
	0.363276	
	0.401760	
	0.453071	
	0.503561	
	0.510304	
	0.526421	
	0.547801	
	0.559971	
	0.566385	
	0.564576	
	0.573950	
	0.582337	
	0.582009	
	0.581680	
	0.578555	
	0.575759	
	0.570003	
	0.565891	
	0.557668	
	0.541058	
	0.526914	
	0.523954	
	0.503232	
	0.475438	
	0.424620	
	0.357849	
	0.328575	
	0.319694	
	0.316240	
	0.312951	
	0.308346	
	0.296669	
	0.300123	
	0.295189	
	0.304399	
	0.316076	
	0.314760	
	0.334824	
	0.337291	
	0.346830	
	0.367881	
	0.408831	
	0.426922	
	0.478892	
	0.527243	
	0.532999	
	0.550268	
	0.554873	
	0.559806	
	0.564740	
	0.571648	
	0.579048	
	0.579048	
	0.574608	
	0.575759	
	0.576910	
	0.573785	
	0.569674	
	0.569181	
	0.558984	
	0.548952	
	0.536617	
	0.509317	
	0.501423	
	0.421495	
	0.364263	
	0.346172	
	0.332522	
	0.326272	
	0.321338	
	0.318378	
	0.296176	
	0.297491	
	0.295353	0.026482
	0.296340	
	0.303412	
	0.305386	
	0.317227	
	0.322161	
	0.314924	
	0.335482	
	0.359987	
	0.398306	
	0.454387	
	0.496653	
	0.515566	
	0.537769	
	0.541716	
	0.558162	
	0.566549	
	0.577897	
	0.581022	
	0.582337	
	0.582831	
	0.578884	
	0.574937	
	0.566220	
	0.559642	
	0.549445	
	0.540564	
	0.531190	
	0.503725	
	0.484319	
	0.451756	
	0.393043	
	0.353737	
	0.335317	
	0.318871	
	0.310977	
	0.300781	
	0.294202	
	0.287953	
	0.290584	
	0.290913	
	0.296340	
	0.300123	
	0.304892	
	0.310977	
	0.320187	
	0.335482	
	0.345185	
	0.390083	
	0.456032	
	0.504876	
	0.522967	
	0.538920	
	0.560629	
	0.562273	
	0.569510	
	0.572141	
	0.578061	
	0.582831	
	0.582009	
	0.581680	
	0.583160	
	0.576746	
	0.574114	
	0.566056	
	0.562767	
	0.553228	
	0.542209	
	0.526421	
	0.507508	
	0.482839	
	0.398141	
	0.351270	
	0.328903	
	0.323147	
	0.317227	
	0.304399	
	0.300616	
	0.284664	
	0.293380	
	0.288446	
	0.294038	
	0.301110	
	0.304399	
	0.310813	
	0.323805	
	0.338278	
	0.349954	
	0.378735	
	0.392714	
	0.450440	
	0.512935	
	0.528394	
	0.554215	
	0.559971	
	0.566385	
	0.572470	
	0.576088	
	0.583324	
	0.582009	
	0.581351	0.024070
	0.580857	
	0.580693	
	0.576088	
	0.564905	
	0.559971	
	0.553228	
	0.542045	
	0.524612	
	0.497969	
	0.451262	
	0.391234	
	0.363934	
	0.338607	
	0.324956	
	0.311635	
	0.306866	
	0.302096	
	0.292558	
	0.299465	
	0.297327	
	0.301767	
	0.300123	
	0.303083	
	0.311964	
	0.328081	
	0.330055	
	0.340087	
	0.356697	
	0.416068	
	0.466228	
	0.505863	
	0.529710	
	0.547472	
	0.563424	
	0.579213	
	0.586120	
	0.589903	
	0.595823	
	0.594343	
	0.597139	
	0.593685	
	0.594179	
	0.593850	
	0.582831	
	0.574114	
	0.566385	
	0.555037	
	0.539578	
	0.515073	
	0.477905	
	0.377748	
	0.338442	
	0.319036	
	0.309004	
	0.297985	
	0.290749	
	0.293380	
	0.285650	
	0.282690	
	0.282032	
	0.285157	
	0.285815	
	0.289268	
	0.297985	
	0.310319	
	0.314760	
	0.326437	
	0.342554	
	0.368867	
	0.427087	
	0.500600	
	0.526750	
	0.550925	
	0.564576	
	0.566549	
	0.572634	
	0.577404	
	0.581351	
	0.580528	
	0.580199	
	0.578226	
	0.579213	
	0.575595	
	0.570990	
	0.559148	
	0.554379	
	0.541551	
	0.522967	
	0.503890	
	0.468860	
	0.395181	
	0.354724	
	0.332193	
	0.315582	
	0.313280	
	0.302590	
	0.299794	
	0.286637	
	0.290255	
	0.291242	0.025887
	0.296669	
	0.297327	
	0.301603	
	0.313609	
	0.325285	
	0.334824	
	0.358177	
	0.369690	
	0.432185	
	0.485141	
	0.520665	
	0.541387	
	0.558984	
	0.566220	
	0.568194	
	0.572799	
	0.580693	
	0.587765	
	0.582666	
	0.588916	
	0.582337	
	0.581186	
	0.573457	
	0.567865	
	0.557339	
	0.553721	
	0.536288	
	0.521651	
	0.458663	
	0.371170	
	0.353408	
	0.328575	
	0.321667	
	0.315253	
	0.311471	
	0.301110	
	0.300945	
	0.290584	
	0.290913	
	0.296176	
	0.300945	
	0.299794	
	0.306537	
	0.312951	
	0.323476	
	0.323970	
	0.351106	
	0.375117	
	0.436954	
	0.492049	
	0.520994	
	0.539084	
	0.550268	
	0.561286	
	0.564411	
	0.573457	
	0.577075	
	0.585298	
	0.581844	
	0.585627	
	0.579542	
	0.573950	
	0.573128	
	0.559148	
	0.549445	
	0.547801	
	0.543854	
	0.525763	
	0.515895	
	0.480865	
	0.443862	
	0.379722	
	0.362947	
	0.334166	
	0.314924	
	0.310484	
	0.308017	
	0.302261	
	0.303083	
	0.303248	
	0.307524	
	0.307524	
	0.308510	
	0.324299	
	0.337291	
	0.344692	
	0.371663	
	0.470504	
	0.511290	
	0.525763	
	0.549939	
	0.564905	
	0.578390	
	0.583489	
	0.585956	
	0.594836	
	0.597139	
	0.602237	
	0.597632	
	0.603060	0.039337
	0.597961	
	0.591054	
	0.578555	
	0.572141	
	0.561615	
	0.555859	
	0.519349	
	0.485470	
	0.370676	
	0.326272	
	0.310977	
	0.297163	
	0.291242	
	0.296505	
	0.302425	
	0.299958	
	0.292229	
	0.284992	
	0.284006	
	0.285650	
	0.288117	
	0.283677	
	0.295353	
	0.305715	
	0.324792	
	0.342225	
	0.345678	
	0.359987	
	0.406364	
	0.435638	
	0.488430	
	0.513593	
	0.532012	
	0.530203	
	0.524776	
	0.541716	
	0.554379	
	0.572799	
	0.573950	
	0.583982	
	0.585133	
	0.586285	
	0.584147	
	0.580035	
	0.565398	
	0.560300	
	0.550761	
	0.537275	
	0.495009	
	0.460801	
	0.426758	
	0.363934	
	0.341402	
	0.318542	
	0.310484	
	0.296176	
	0.286802	
	0.286637	
	0.298314	
	0.299958	
	0.296505	
	0.289926	
	0.292558	
	0.308017	
	0.327588	
	0.324956	
	0.350612	
	0.404555	
	0.520336	
	0.536946	
	0.551090	
	0.556024	
	0.558655	
	0.555366	
	0.548130	
	0.550432	
	0.548294	
	0.576417	
	0.581515	
	0.592205	
	0.592205	
	0.596974	
	0.593192	
	0.588751	
	0.583324	
	0.574279	
	0.564905	
	0.572305	
	0.570496	
	0.558820	
	0.536946	
	0.515895	
	0.512113	
	0.445835	
	0.348968	
	0.300287	
	0.289762	
	0.276276	
	0.276276	
	0.277263	0.032190
	0.278250	
	0.282854	
	0.287953	
	0.295189	
	0.294367	
	0.295189	
	0.295682	
	0.310648	
	0.329726	
	0.356533	
	0.402911	
	0.498956	
	0.526750	
	0.538920	
	0.559477	
	0.566220	
	0.575430	
	0.585791	
	0.584804	
	0.585627	
	0.581680	
	0.581515	
	0.572141	
	0.560464	
	0.549774	
	0.533328	
	0.522474	
	0.507014	
	0.485141	
	0.458334	
	0.414752	
	0.353244	
	0.334660	
	0.317885	
	0.312951	
	0.324299	
	0.315582	
	0.290091	
	0.279401	
	0.273645	
	0.280716	
	0.288611	
	0.312786	
	0.335975	
	0.361960	
	0.362947	
	0.360973	
	0.367716	
	0.407351	
	0.444684	
	0.504876	
	0.517704	
	0.540893	
	0.550925	
	0.558491	
	0.579871	
	0.584311	
	0.583324	
	0.573785	
	0.568358	
	0.567207	
	0.553721	
	0.551419	
	0.536124	
	0.522638	
	0.518527	
	0.516882	
	0.500272	
	0.433665	
	0.382518	
	0.361467	
	0.333837	
	0.317062	
	0.314595	
	0.309662	
	0.306537	
	0.312622	
	0.310648	
	0.321009	
	0.308839	
	0.322161	
	0.344856	
	0.375775	
	0.368045	
	0.323641	
	0.320023	
	0.335153	
	0.334166	
	0.329232	
	0.310155	
	0.309168	
	0.326765	
	0.387287	
	0.510797	
	0.559642	
	0.588751	
	0.598290	
	0.607993	
	0.614901	
	0.621808	0.044745
	0.615887	
	0.605033	
	0.592863	
	0.565891	
	0.517047	
	0.495667	
	0.396003	
	0.400279	
	0.406200	
	0.415739	
	0.418041	
	0.347981	
	0.327094	
	0.311800	
	0.317885	
	0.318871	
	0.315582	
	0.296011	
	0.291900	
	0.291242	
	0.291242	
	0.292722	
	0.299958	
	0.299794	
	0.309333	
	0.308675	
	0.319036	
	0.344692	
	0.390905	
	0.391727	
	0.379886	
	0.450440	
	0.488595	
	0.521323	
	0.546485	
	0.558491	
	0.553228	
	0.560958	
	0.559313	
	0.570825	
	0.570167	
	0.567372	
	0.561122	
	0.563096	
	0.563753	
	0.570332	
	0.556846	
	0.536124	
	0.500929	
	0.434487	
	0.422153	
	0.352421	
	0.332851	
	0.326272	
	0.321996	
	0.315747	
	0.313280	
	0.302754	
	0.299629	
	0.296011	
	0.293215	
	0.307853	
	0.315582	
	0.336798	
	0.364427	
	0.367552	
	0.373966	
	0.388767	
	0.461623	
	0.514909	
	0.541880	
	0.568852	
	0.583489	
	0.591876	
	0.590725	
	0.591218	
	0.592534	
	0.597961	
	0.597468	
	0.600428	
	0.607007	
	0.607171	
	0.598290	
	0.593685	
	0.582831	
	0.580035	
	0.574608	
	0.560300	
	0.547801	
	0.533657	
	0.504876	
	0.461294	
	0.372979	
	0.330713	
	0.307195	
	0.286144	
	0.272329	
	0.251278	
	0.248318	
	0.247660	0.035587
	0.257034	
	0.260323	
	0.270027	
	0.276441	
	0.288282	
	0.299136	
	0.312786	
	0.321009	
	0.330384	
	0.354724	
	0.357026	
	0.425277	
	0.466886	
	0.526256	
	0.530861	
	0.553228	
	0.563753	
	0.586613	
	0.583818	
	0.586778	
	0.581351	
	0.578226	
	0.577568	
	0.563918	
	0.542702	
	0.559148	
	0.557010	
	0.560464	
	0.540893	
	0.521651	
	0.506850	
	0.417054	
	0.346172	
	0.327259	
	0.317227	
	0.317720	
	0.314595	
	0.305550	
	0.304728	
	0.300287	
	0.297491	
	0.292887	
	0.294531	
	0.295847	
	0.315418	
	0.304563	
	0.329068	
	0.350448	
	0.366565	
	0.383998	
	0.394852	
	0.456854	
	0.519842	
	0.539084	
	0.545005	
	0.557668	
	0.567372	
	0.574443	
	0.554215	
	0.555695	
	0.555859	
	0.551254	
	0.557010	
	0.551748	
	0.568687	
	0.583982	
	0.570167	
	0.547636	
	0.520665	
	0.415410	
	0.362618	
	0.342718	
	0.338113	
	0.330713	
	0.326272	
	0.311142	
	0.299301	
	0.276441	
	0.283512	
	0.283841	
	0.280881	
	0.280881	
	0.290091	
	0.290584	
	0.301274	
	0.303741	
	0.325614	
	0.332357	
	0.367552	
	0.416232	
	0.453565	
	0.519349	
	0.543689	
	0.561780	
	0.570167	
	0.571154	
	0.572799	
	0.579542	
	0.578719	
	0.586285	0.045219
	0.585133	
	0.581022	
	0.579706	
	0.570496	
	0.555201	
	0.547636	
	0.522474	
	0.504054	
	0.475602	
	0.433007	
	0.451427	
	0.429882	
	0.407351	
	0.358506	
	0.331699	
	0.307359	
	0.314924	
	0.319529	
	0.342883	
	0.345843	
	0.345350	
	0.348310	
	0.346830	
	0.334989	
	0.340251	
	0.334824	
	0.342389	
	0.360644	
	0.362289	
	0.386136	
	0.385971	
	0.413107	
	0.409325	
	0.433007	
	0.433994	
	0.504712	
	0.508824	
	0.547307	
	0.566220	
	0.577897	
	0.575266	
	0.576088	
	0.570661	
	0.570332	
	0.551912	
	0.557175	
	0.541387	
	0.537275	
	0.486621	
	0.403240	
	0.366072	
	0.327259	
	0.310813	
	0.298149	
	0.310319	
	0.324463	
	0.332522	
	0.312293	
	0.302754	
	0.292887	
	0.299136	
	0.312622	
	0.318707	
	0.331535	
	0.359164	
	0.403898	
	0.506192	
	0.549774	
	0.573621	
	0.570825	
	0.574279	
	0.592863	
	0.593356	
	0.597303	
	0.598784	
	0.602073	
	0.607664	
	0.616381	
	0.615559	
	0.601579	
	0.583982	
	0.585298	
	0.592698	
	0.595165	
	0.586942	
	0.577897	
	0.564905	
	0.544018	
	0.537275	
	0.503232	
	0.339429	
	0.303412	
	0.312951	
	0.327259	
	0.308181	
	0.286802	
	0.275783	
	0.266079	
	0.268875	
	0.266902	0.038462
	0.275783	
	0.276769	
	0.282361	
	0.285815	
	0.299136	
	0.303741	
	0.336962	
	0.354230	
	0.371005	
	0.395839	
	0.455867	
	0.530368	
	0.540236	
	0.535631	
	0.539742	
	0.568687	
	0.585627	
	0.596317	
	0.595659	
	0.598126	
	0.600757	
	0.595330	
	0.575759	
	0.571154	
	0.581022	
	0.592370	
	0.586120	
	0.573785	
	0.552570	
	0.530368	
	0.531519	
	0.509317	
	0.510633	
	0.400444	
	0.343376	
	0.344527	
	0.369361	
	0.357684	
	0.338113	
	0.300945	
	0.279730	
	0.268053	
	0.265422	
	0.266079	
	0.278743	
	0.280881	
	0.281045	
	0.301274	
	0.325285	
	0.346994	
	0.399457	
	0.398964	
	0.360480	
	0.393208	
	0.433994	
	0.511126	
	0.533986	
	0.547472	
	0.543525	
	0.550268	
	0.535631	
	0.534808	
	0.522474	
	0.474616	
	0.463761	
	0.486950	
	0.498462	
	0.489088	
	0.434981	
	0.383504	
	0.366401	
	0.329726	
	0.322983	
	0.323805	
	0.312293	
	0.298149	
	0.285321	
	0.276934	
	0.276605	
	0.280223	
	0.280716	
	0.284828	
	0.292393	
	0.295025	
	0.304234	
	0.304399	
	0.326108	
	0.353737	
	0.375281	
	0.447644	
	0.496653	
	0.523132	
	0.550761	
	0.563096	
	0.564411	
	0.563918	
	0.567043	
	0.572470	
	0.572470	
	0.579048	0.065202
	0.572141	
	0.574279	
	0.570990	
	0.573292	
	0.567536	
	0.569345	
	0.548130	
	0.534973	
	0.522638	
	0.515237	
	0.493858	
	0.383340	
	0.356039	
	0.332851	
	0.339922	
	0.339264	
	0.360644	
	0.347159	
	0.324792	
	0.305221	
	0.304234	
	0.316404	
	0.333179	
	0.466393	
	0.521323	
	0.449453	
	0.364756	
	0.327423	
	0.327094	
	0.341238	
	0.371828	
	0.525434	
	0.548787	
	0.533164	
	0.522967	
	0.398470	
	0.340251	
	0.470669	
	0.539249	
	0.562438	
	0.579048	
	0.569838	
	0.571812	
	0.577404	
	0.571812	
	0.575266	
	0.580035	
	0.590725	
	0.596481	
	0.598784	
	0.578061	
	0.543031	
	0.554215	
	0.565562	
	0.565562	
	0.583818	
	0.591218	
	0.583489	
	0.580528	
	0.563424	
	0.529546	
	0.438105	
	0.320023	
	0.295682	
	0.320023	
	0.355711	
	0.358342	
	0.303741	
	0.275947	
	0.265586	
	0.265422	
	0.284006	
	0.316076	
	0.380544	
	0.470833	
	0.521651	
	0.528723	
	0.514744	
	0.519185	
	0.553228	
	0.559313	
	0.575266	
	0.563424	
	0.557175	
	0.548787	
	0.553063	
	0.537275	
	0.522638	
	0.494022	
	0.394194	
	0.369690	
	0.348474	
	0.339593	
	0.318214	
	0.331370	
	0.319365	
	0.313280	
	0.309004	
	0.333179	
	0.338936	0.068504
	0.293544	
	0.278743	
	0.276605	
	0.258021	
	0.272329	
	0.275947	
	0.293544	
	0.295847	
	0.303905	
	0.310977	
	0.323805	
	0.365249	
	0.420673	
	0.521980	
	0.547636	
	0.568194	
	0.580199	
	0.588916	
	0.581844	
	0.592370	
	0.590232	
	0.590725	
	0.580199	
	0.565891	
	0.537440	
	0.540071	
	0.540236	
	0.518856	
	0.436625	
	0.381695	
	0.362782	
	0.316569	
	0.304728	
	0.294367	
	0.300616	
	0.301767	
	0.294038	
	0.284664	
	0.284664	
	0.293380	
	0.303083	
	0.323147	
	0.332686	
	0.325285	
	0.308017	
	0.307524	
	0.320845	
	0.321667	
	0.335975	
	0.390905	
	0.455374	
	0.510633	
	0.514909	
	0.539907	
	0.549774	
	0.557668	
	0.564082	
	0.573292	
	0.575101	
	0.580199	
	0.574608	
	0.576746	
	0.576746	
	0.570496	
	0.554215	
	0.546485	
	0.532177	
	0.537604	
	0.527901	
	0.513264	
	0.473793	
	0.374459	
	0.340580	
	0.305057	
	0.306208	
	0.290913	
	0.283512	
	0.283677	
	0.287624	
	0.289433	
	0.307195	
	0.311471	
	0.309662	
	0.329561	
	0.355382	
	0.334495	
	0.347488	
	0.363276	
	0.409818	
	0.494186	
	0.500765	
	0.514744	
	0.535960	
	0.572141	
	0.580364	
	0.587929	
	0.595823	
	0.597961	
	0.592534	
	0.587600	0.067398
	0.587271	
	0.580199	
	0.578226	
	0.562602	
	0.528065	
	0.502081	
	0.479385	
	0.454716	
	0.397484	
	0.379722	
	0.366072	
	0.377255	
	0.374130	
	0.350448	
	0.342225	
	0.326930	
	0.325121	
	0.308675	
	0.288775	
	0.290913	
	0.329068	
	0.347816	
	0.371499	
	0.459156	
	0.498791	
	0.513428	
	0.554215	
	0.556353	
	0.550925	
	0.557339	
	0.558162	
	0.560135	
	0.566220	
	0.571648	
	0.585462	
	0.597797	
	0.596152	
	0.591547	
	0.592370	
	0.585298	
	0.567865	
	0.582173	
	0.594343	
	0.606842	
	0.612434	
	0.608651	
	0.589903	
	0.580035	
	0.548952	
	0.550925	
	0.561451	
	0.529381	
	0.412943	
	0.268546	
	0.264599	
	0.264435	
	0.259830	
	0.252594	
	0.243877	
	0.233845	
	0.235490	
	0.249469	
	0.254074	
	0.267889	
	0.288940	
	0.285815	
	0.286637	
	0.285157	
	0.296176	
	0.339429	
	0.482345	
	0.558491	
	0.571319	
	0.552735	
	0.560135	
	0.571319	
	0.582337	
	0.593356	
	0.594179	
	0.579542	
	0.557833	
	0.561286	
	0.567865	
	0.579377	
	0.600757	
	0.616052	
	0.607335	
	0.591547	
	0.585627	
	0.593521	
	0.574772	
	0.516060	
	0.399622	
	0.322325	
	0.279730	
	0.276605	
	0.269204	
	0.264106	
	0.283019	
	0.307359	0.063455
	0.291900	
	0.285979	
	0.285815	
	0.269533	
	0.272658	
	0.275783	
	0.296176	
	0.331535	
	0.442217	
	0.535466	
	0.532341	
	0.505699	
	0.543031	
	0.553063	
	0.562438	
	0.543854	
	0.533164	
	0.566878	
	0.570332	
	0.568194	
	0.569345	
	0.562602	
	0.508988	
	0.355711	
	0.330713	
	0.353902	
	0.404391	
	0.393043	
	0.360315	
	0.337291	
	0.323147	
	0.297327	
	0.287953	
	0.270684	
	0.270027	
	0.276605	
	0.285321	
	0.284664	
	0.274960	
	0.279236	
	0.295682	
	0.312622	
	0.342554	
	0.359164	
	0.376926	
	0.416725	
	0.381038	
	0.345021	
	0.355546	
	0.348803	
	0.348310	
	0.391892	
	0.463432	
	0.521323	
	0.536124	
	0.552077	
	0.556517	
	0.565069	
	0.583653	
	0.587436	
	0.576088	
	0.559806	
	0.550103	
	0.545334	
	0.535631	
	0.530368	
	0.526421	
	0.526092	
	0.516224	
	0.472149	
	0.402911	
	0.348145	
	0.317227	
	0.294531	
	0.293380	
	0.286966	
	0.284335	
	0.280716	
	0.275618	
	0.283019	
	0.284664	
	0.289597	
	0.291900	
	0.288611	
	0.301767	
	0.321503	
	0.348639	
	0.402911	
	0.416890	
	0.374624	
	0.431198	
	0.521651	
	0.546485	
	0.554708	
	0.562602	
	0.575430	
	0.581844	
	0.584804	
	0.592698	
	0.595330	0.099441
	0.599606	
	0.603060	
	0.606020	
	0.603224	
	0.602402	
	0.605691	
	0.599277	
	0.583324	
	0.553557	
	0.522145	
	0.462281	
	0.403733	
	0.391563	
	0.370676	
	0.337455	
	0.303741	
	0.300123	
	0.286966	
	0.281374	
	0.269204	
	0.263941	
	0.272165	
	0.304070	
	0.358342	
	0.415903	
	0.470175	
	0.533986	
	0.571319	
	0.581680	
	0.606678	
	0.615559	
	0.612269	
	0.617039	
	0.616216	
	0.622795	
	0.630689	
	0.629209	
	0.625426	
	0.615065	
	0.609802	
	0.605362	
	0.561286	
	0.506850	
	0.417383	
	0.305879	
	0.287953	
	0.287953	
	0.283019	
	0.272493	
	0.275783	
	0.281868	
	0.286308	
	0.285486	
	0.315747	
	0.505370	
	0.556024	
	0.547307	
	0.571154	
	0.591054	
	0.593027	
	0.537933	
	0.347159	
	0.258514	
	0.246838	
	0.235161	
	0.231378	
	0.248811	
	0.283183	
	0.322818	
	0.295847	
	0.305386	
	0.500272	
	0.582009	
	0.600922	
	0.594836	
	0.567700	
	0.555037	
	0.572963	
	0.596317	
	0.589080	
	0.572799	
	0.543689	
	0.517869	
	0.394852	
	0.470998	
	0.539413	
	0.547472	
	0.543196	
	0.551583	
	0.570332	
	0.581022	
	0.562273	
	0.505041	
	0.357520	
	0.339593	
	0.331864	
	0.316733	
	0.280059	
	0.257034	
	0.235983	0.060862
	0.231214	
	0.238779	
	0.248318	
	0.257034	
	0.269369	
	0.272165	
	0.275618	
	0.282690	
	0.292887	
	0.298972	
	0.303083	
	0.302590	
	0.298314	
	0.333508	
	0.486292	
	0.537440	
	0.538098	
	0.544183	
	0.557339	
	0.551912	
	0.581351	
	0.589738	
	0.585298	
	0.563424	
	0.533164	
	0.524941	
	0.538426	
	0.539907	
	0.531519	
	0.514251	
	0.473793	
	0.402911	
	0.384656	
	0.380215	
	0.383833	
	0.355875	
	0.355711	
	0.334331	
	0.304234	
	0.295682	
	0.280388	
	0.277921	
	0.291242	
	0.289926	
	0.284828	
	0.309004	
	0.323312	
	0.344692	
	0.383998	
	0.414259	
	0.418041	
	0.461788	
	0.511948	
	0.547965	
	0.582831	
	0.604540	
	0.614901	
	0.619012	
	0.623946	
	0.615887	
	0.614243	
	0.605197	
	0.593850	
	0.589245	
	0.584147	
	0.588916	
	0.586285	
	0.585133	
	0.583324	
	0.575430	
	0.563589	
	0.543525	
	0.522474	
	0.414423	
	0.346501	
	0.349626	
	0.346665	
	0.301274	
	0.274138	
	0.265915	
	0.271836	
	0.275289	
	0.275783	
	0.277592	
	0.293215	
	0.291571	
	0.287624	
	0.304892	
	0.304399	
	0.324463	
	0.349132	
	0.460801	
	0.548623	
	0.577404	
	0.590232	
	0.596810	
	0.596481	
	0.603060	
	0.609473	
	0.605033	0.085038
	0.593356	
	0.582831	
	0.575595	
	0.557668	
	0.535795	
	0.505370	
	0.511619	
	0.466064	
	0.461130	
	0.549116	
	0.571812	
	0.555695	
	0.540564	
	0.522145	
	0.541551	
	0.563424	
	0.571812	
	0.568523	
	0.540400	
	0.536453	
	0.492377	
	0.439750	
	0.396332	
	0.307688	
	0.264764	
	0.259994	
	0.256705	
	0.260817	
	0.267231	
	0.272822	
	0.289433	
	0.305715	
	0.315089	
	0.346172	
	0.418041	
	0.527901	
	0.555695	
	0.568687	
	0.582995	
	0.573128	
	0.557833	
	0.533822	
	0.541222	
	0.560464	
	0.568194	
	0.577733	
	0.577404	
	0.569181	
	0.565398	
	0.545663	
	0.500765	
	0.466064	
	0.399293	
	0.384162	
	0.343047	
	0.353079	
	0.410147	
	0.516060	
	0.503067	
	0.398799	
	0.321667	
	0.315582	
	0.326272	
	0.305879	
	0.299136	
	0.316404	
	0.356368	
	0.407022	
	0.447809	
	0.421001	
	0.320352	
	0.297985	
	0.331535	
	0.482016	
	0.546814	
	0.573128	
	0.588916	
	0.585133	
	0.597961	
	0.601086	
	0.583982	
	0.510304	
	0.406693	
	0.470011	
	0.466886	
	0.448466	
	0.554050	
	0.570332	
	0.546156	
	0.369196	
	0.334166	
	0.333508	
	0.320845	
	0.324792	
	0.329890	
	0.319365	
	0.308510	
	0.314760	
	0.316733	
	0.340087	0.055275
	0.342883	
	0.334331	
	0.327094	
	0.304234	
	0.300781	
	0.289433	
	0.273974	
	0.280223	
	0.288282	
	0.306043	
	0.328739	
	0.353079	
	0.474287	
	0.511455	
	0.548130	
	0.569016	
	0.575595	
	0.570825	
	0.580035	
	0.585791	
	0.586613	
	0.581515	
	0.576252	
	0.573457	
	0.555201	
	0.570003	
	0.566056	
	0.548623	
	0.498956	
	0.337620	
	0.315089	
	0.314924	
	0.306043	
	0.295518	
	0.277263	
	0.277921	
	0.288282	
	0.304070	
	0.305057	
	0.297820	
	0.301932	
	0.298478	
	0.294202	
	0.301274	
	0.310813	
	0.297327	
	0.290420	
	0.295518	
	0.303083	
	0.322161	
	0.401102	
	0.516882	
	0.555366	
	0.574937	
	0.583653	
	0.585133	
	0.587929	
	0.584969	
	0.591876	
	0.595001	
	0.597797	
	0.599112	
	0.594508	
	0.587107	
	0.586120	
	0.575759	
	0.571154	
	0.551419	
	0.547636	
	0.544347	
	0.542702	
	0.545334	
	0.521651	
	0.448137	
	0.363440	
	0.318214	
	0.325285	
	0.315582	
	0.303412	
	0.320023	
	0.323476	
	0.346830	
	0.357684	
	0.327423	
	0.337127	
	0.432020	
	0.520829	
	0.511948	
	0.504548	
	0.511455	
	0.510961	
	0.534644	
	0.544347	
	0.544840	
	0.551090	
	0.558326	
	0.570003	
	0.579542	
	0.588751	
	0.577404	0.080813
	0.582337	
	0.581022	
	0.575759	
	0.562273	
	0.541387	
	0.551254	
	0.576417	
	0.593356	
	0.598126	
	0.579542	
	0.540071	
	0.508330	
	0.538755	
	0.493529	
	0.342389	
	0.307195	
	0.267395	
	0.244700	
	0.226280	
	0.235325	
	0.247495	
	0.276112	
	0.359987	
	0.508330	
	0.515237	
	0.517047	
	0.500107	
	0.511619	
	0.526421	
	0.572963	
	0.569016	
	0.508166	
	0.384162	
	0.379393	
	0.348145	
	0.488924	
	0.576417	
	0.610460	
	0.622466	
	0.619670	
	0.620821	
	0.615559	
	0.610460	
	0.597303	
	0.582502	
	0.546978	
	0.483497	
	0.380215	
	0.349297	
	0.320516	
	0.297491	
	0.303083	
	0.303905	
	0.318049	
	0.292887	
	0.296998	
	0.285486	
	0.270684	
	0.247989	
	0.234832	
	0.217070	
	0.223320	
	0.230392	
	0.246015	
	0.252429	
	0.269369	
	0.278250	
	0.305057	
	0.330877	
	0.368867	
	0.392385	
	0.461788	
	0.547801	
	0.571648	
	0.582009	
	0.584969	
	0.587929	
	0.595988	
	0.606349	
	0.605197	
	0.599112	
	0.593850	
	0.584475	
	0.576417	
	0.579048	
	0.580035	
	0.572634	
	0.559971	
	0.557997	
	0.572470	
	0.588751	
	0.579542	
	0.557504	
	0.542702	
	0.510468	
	0.356533	
	0.306866	
	0.291078	
	0.263448	
	0.261639	0.076418
	0.261639	
	0.258350	
	0.268382	
	0.278085	
	0.301603	
	0.362947	
	0.366236	
	0.413272	
	0.501916	
	0.536288	
	0.537933	
	0.511126	
	0.387123	
	0.335482	
	0.325450	
	0.344527	
	0.388932	
	0.483990	
	0.553228	
	0.563096	
	0.556517	
	0.545498	
	0.545827	
	0.549774	
	0.540400	
	0.527572	
	0.530039	
	0.520336	
	0.517869	
	0.503232	
	0.424126	
	0.432678	
	0.345185	
	0.309004	
	0.287459	
	0.283841	
	0.281539	
	0.286473	
	0.277921	
	0.274631	
	0.274303	
	0.279072	
	0.281374	
	0.276112	
	0.282361	
	0.301603	
	0.306208	
	0.327259	
	0.356039	
	0.386300	
	0.415245	
	0.485141	
	0.544018	
	0.561944	
	0.576746	
	0.575923	
	0.585133	
	0.602073	
	0.620821	
	0.619670	
	0.612269	
	0.602895	
	0.602895	
	0.603388	
	0.598619	
	0.590067	
	0.592041	
	0.587436	
	0.588422	
	0.588916	
	0.590396	
	0.603060	
	0.603553	
	0.581351	
	0.538098	
	0.502410	
	0.329726	
	0.307853	
	0.319694	
	0.338278	
	0.354395	
	0.331041	
	0.286966	
	0.263777	
	0.259994	
	0.263448	
	0.275618	
	0.285815	
	0.274467	
	0.295682	
	0.328739	
	0.312128	
	0.343705	
	0.458827	
	0.534808	
	0.581515	
	0.596810	
	0.607007	
	0.610789	
	0.609967	0.073599
	0.608322	
	0.596481	
	0.579542	
	0.568194	
	0.569181	
	0.568358	
	0.594179	
	0.598784	
	0.591547	
	0.585627	
	0.579213	
	0.577733	
	0.530532	
	0.344198	
	0.295025	
	0.285815	
	0.277592	
	0.276605	
	0.262132	
	0.266737	
	0.264435	
	0.276769	
	0.300945	
	0.347323	
	0.513099	
	0.561780	
	0.575923	
	0.576910	
	0.559313	
	0.560464	
	0.565398	
	0.577404	
	0.599770	
	0.614572	
	0.620657	
	0.623782	
	0.624439	
	0.617532	
	0.588751	
	0.533822	
	0.458992	
	0.336633	
	0.326765	
	0.346830	
	0.297491	
	0.271836	
	0.276934	
	0.264270	
	0.254567	
	0.243384	
	0.236477	
	0.225458	
	0.213288	
	0.209505	
	0.211314	
	0.220524	
	0.232036	
	0.255883	
	0.275454	
	0.284170	
	0.278743	
	0.278907	
	0.271178	
	0.270355	
	0.281210	
	0.293544	
	0.316240	
	0.399951	
	0.507837	
	0.524118	
	0.512442	
	0.486950	
	0.515566	
	0.535795	
	0.548294	
	0.562767	
	0.580693	
	0.575430	
	0.579542	
	0.574937	
	0.576746	
	0.569838	
	0.569674	
	0.575430	
	0.570332	
	0.561780	
	0.558984	
	0.555859	
	0.562273	
	0.555859	
	0.545827	
	0.488595	
	0.346336	
	0.306866	
	0.284006	
	0.288940	
	0.292558	
	0.325285	
	0.321667	
	0.344856	0.090628
	0.339100	
	0.346336	
	0.364263	
	0.354888	
	0.363605	
	0.388438	
	0.346830	
	0.340251	
	0.320187	
	0.304234	
	0.307195	
	0.316404	
	0.337455	
	0.361138	
	0.421330	
	0.503725	
	0.547143	
	0.575923	
	0.595988	
	0.586613	
	0.581351	
	0.580199	
	0.571483	
	0.568523	
	0.569838	
	0.567043	
	0.567043	
	0.559971	
	0.566220	
	0.550432	
	0.536617	
	0.491720	
	0.371828	
	0.355382	
	0.333673	
	0.332851	
	0.319365	
	0.311635	
	0.295518	
	0.293380	
	0.302754	
	0.327094	
	0.359658	
	0.411298	
	0.505041	
	0.520994	
	0.494515	
	0.530368	
	0.529217	
	0.539907	
	0.560629	
	0.570825	
	0.582337	
	0.591054	
	0.590560	
	0.597468	
	0.610296	
	0.629373	
	0.646148	
	0.643517	
	0.641872	
	0.635787	
	0.631182	
	0.633485	
	0.631840	
	0.610625	
	0.578884	
	0.557504	
	0.552570	
	0.540071	
	0.381860	
	0.292393	
	0.254238	
	0.232036	
	0.229569	
	0.234832	
	0.230556	
	0.222826	
	0.220853	
	0.228747	
	0.234832	
	0.244042	
	0.260652	
	0.279236	
	0.283512	
	0.303083	
	0.326272	
	0.422975	
	0.507672	
	0.572799	
	0.606184	
	0.631676	
	0.641708	
	0.644997	
	0.642366	
	0.634143	
	0.641872	
	0.653713	
	0.642201	
	0.619177	0.109726
	0.606513	
	0.602402	
	0.594508	
	0.565891	
	0.516224	
	0.378242	
	0.389918	
	0.388438	
	0.468695	
	0.530039	
	0.560958	
	0.583324	
	0.555859	
	0.449289	
	0.315911	
	0.332686	
	0.311800	
	0.313773	
	0.295682	
	0.273645	
	0.284828	
	0.311471	
	0.316733	
	0.276112	
	0.260981	
	0.267231	
	0.259172	
	0.254732	
	0.251771	
	0.248811	
	0.250127	
	0.258843	
	0.270684	
	0.278578	
	0.282361	
	0.301439	
	0.338113	
	0.410476	
	0.529710	
	0.526750	
	0.475602	
	0.440408	
	0.470011	
	0.441066	
	0.372321	
	0.374952	
	0.446493	
	0.432185	
	0.434816	
	0.415081	
	0.387945	
	0.367387	
	0.344363	
	0.338607	
	0.326108	
	0.328410	
	0.328575	
	0.321832	
	0.291406	
	0.276769	
	0.270191	
	0.263941	
	0.272000	
	0.276769	
	0.286473	
	0.304070	
	0.315911	
	0.331370	
	0.342718	
	0.457183	
	0.521487	
	0.528230	
	0.568358	
	0.586285	
	0.603224	
	0.610625	
	0.605197	
	0.594343	
	0.594836	
	0.580528	
	0.573457	
	0.564740	
	0.557668	
	0.560629	
	0.573621	
	0.561944	
	0.549939	
	0.519513	
	0.502574	
	0.489746	
	0.488101	
	0.443204	
	0.397319	
	0.364263	
	0.315582	
	0.291900	
	0.285815	
	0.293380	
	0.294202	
	0.336140	0.080294
	0.412121	
	0.514251	
	0.513593	
	0.449124	
	0.380873	
	0.522309	
	0.576252	
	0.591383	
	0.595659	
	0.603882	
	0.600099	
	0.594343	
	0.607829	
	0.624768	
	0.645161	
	0.643846	
	0.638090	
	0.605197	
	0.575759	
	0.508988	
	0.407187	
	0.520500	
	0.543525	
	0.526256	
	0.479385	
	0.516060	
	0.565234	
	0.561451	
	0.543196	
	0.558491	
	0.570496	
	0.510797	
	0.409654	
	0.331699	
	0.252100	
	0.218057	
	0.208354	
	0.218057	
	0.225951	
	0.249798	
	0.262626	
	0.255225	
	0.247660	
	0.260488	
	0.266902	
	0.260159	
	0.256376	
	0.298478	
	0.403569	
	0.515073	
	0.497476	
	0.518362	
	0.536946	
	0.574772	
	0.610460	
	0.624933	
	0.641214	
	0.662759	
	0.681014	
	0.684303	
	0.682987	
	0.680192	
	0.676409	
	0.669831	
	0.656838	
	0.638254	
	0.621972	
	0.591054	
	0.565398	
	0.562602	
	0.573292	
	0.560135	
	0.536617	
	0.558820	
	0.534644	
	0.511455	
	0.330384	
	0.297163	
	0.282854	
	0.273645	
	0.268053	
	0.248647	
	0.213288	
	0.190756	
	0.179573	
	0.167568	
	0.158358	
	0.151944	
	0.150793	
	0.160331	
	0.171021	
	0.193059	
	0.221675	
	0.261803	
	0.289762	
	0.368210	
	0.573950	
	0.596152	
	0.613256	
	0.625262	0.106073
	0.623288	
	0.598290	
	0.572141	
	0.561122	
	0.556846	
	0.555201	
	0.545334	
	0.472971	
	0.364920	
	0.344198	
	0.347652	
	0.335811	
	0.313773	
	0.298149	
	0.282197	
	0.289926	
	0.289433	
	0.288446	
	0.285815	
	0.283512	
	0.281868	
	0.283677	
	0.294367	
	0.306701	
	0.316898	
	0.354395	
	0.443204	
	0.532835	
	0.542373	
	0.541880	
	0.510468	
	0.490897	
	0.527901	
	0.547965	
	0.557010	
	0.554544	
	0.557504	
	0.561780	
	0.579706	
	0.592863	
	0.600099	
	0.596810	
	0.593685	
	0.594836	
	0.587271	
	0.569016	
	0.560793	
	0.532177	
	0.490404	
	0.381860	
	0.366236	
	0.363111	
	0.334166	
	0.323805	
	0.317556	
	0.307195	
	0.307195	
	0.305715	
	0.297985	
	0.307195	
	0.320352	
	0.325779	
	0.315418	
	0.310319	
	0.310484	
	0.330548	
	0.332357	
	0.363440	
	0.418370	
	0.469682	
	0.522967	
	0.554050	
	0.574608	
	0.575923	
	0.585298	
	0.592698	
	0.597797	
	0.604540	
	0.620163	
	0.644833	
	0.651246	
	0.652069	
	0.651740	
	0.657660	
	0.657496	
	0.650589	
	0.650753	
	0.638583	
	0.629867	
	0.624604	
	0.608816	
	0.609802	
	0.590725	
	0.538262	
	0.288117	
	0.274138	
	0.304728	
	0.295189	
	0.280223	
	0.288446	0.092890
	0.277263	
	0.278085	
	0.282032	
	0.274960	
	0.278743	
	0.295518	
	0.321667	
	0.325121	
	0.402582	
	0.534644	
	0.534315	
	0.485141	
	0.367223	
	0.308839	
	0.301932	
	0.320187	
	0.346336	
	0.430376	
	0.556353	
	0.592863	
	0.595001	
	0.589738	
	0.604211	
	0.625755	
	0.632005	
	0.615065	
	0.596317	
	0.575759	
	0.551912	
	0.494844	
	0.475438	
	0.524447	
	0.442381	
	0.316733	
	0.289268	
	0.271178	
	0.252429	
	0.244206	
	0.249304	
	0.265586	
	0.312622	
	0.320845	
	0.330713	
	0.326108	
	0.334660	
	0.357849	
	0.388438	
	0.545334	
	0.580199	
	0.589738	
	0.606678	
	0.603388	
	0.595988	
	0.577897	
	0.569674	
	0.575595	
	0.577404	
	0.560629	
	0.555695	
	0.471984	
	0.447151	
	0.496818	
	0.483332	
	0.404555	
	0.382024	
	0.325450	
	0.324627	
	0.298972	
	0.299958	
	0.286966	
	0.286637	
	0.269698	
	0.247660	
	0.244371	
	0.234174	
	0.234667	
	0.239930	
	0.248153	
	0.256541	
	0.268546	
	0.281374	
	0.280388	
	0.272493	
	0.265586	
	0.271507	
	0.277592	
	0.253087	
	0.239766	
	0.240588	
	0.259666	
	0.275783	
	0.295847	
	0.331370	
	0.386136	
	0.513757	
	0.543689	
	0.562438	
	0.569510	
	0.570167	
	0.572305	0.109794
	0.578226	
	0.581351	
	0.574443	
	0.567043	
	0.565069	
	0.551419	
	0.536124	
	0.511784	
	0.483168	
	0.477576	
	0.492049	
	0.498791	
	0.480865	
	0.430376	
	0.363276	
	0.336633	
	0.303083	
	0.303248	
	0.290749	
	0.289104	
	0.293215	
	0.288282	
	0.287953	
	0.284828	
	0.291900	
	0.300781	
	0.309168	
	0.321009	
	0.337127	
	0.364591	
	0.452413	
	0.526585	
	0.559806	
	0.576746	
	0.581680	
	0.579706	
	0.588258	
	0.589903	
	0.593521	
	0.598126	
	0.599277	
	0.593192	
	0.596974	
	0.594672	
	0.585791	
	0.574443	
	0.571319	
	0.557668	
	0.547965	
	0.525927	
	0.487773	
	0.495502	
	0.508824	
	0.450604	
	0.351764	
	0.350941	
	0.420015	
	0.503561	
	0.524612	
	0.541716	
	0.515566	
	0.523296	
	0.545663	
	0.581844	
	0.583324	
	0.585956	
	0.586778	
	0.575595	
	0.523789	
	0.319529	
	0.284335	
	0.268546	
	0.270849	
	0.278743	
	0.352586	
	0.544840	
	0.595001	
	0.616545	
	0.611447	
	0.609638	
	0.616052	
	0.631511	
	0.630031	
	0.614736	
	0.589409	
	0.482674	
	0.295189	
	0.262955	
	0.259008	
	0.262790	
	0.269040	
	0.272165	
	0.285486	
	0.310648	
	0.367881	
	0.496489	
	0.539907	
	0.572305	
	0.574608	
	0.540729	0.093687
	0.441559	
	0.326601	
	0.334660	
	0.367881	
	0.553392	
	0.602731	
	0.639570	
	0.639899	
	0.611611	
	0.594672	
	0.598290	
	0.608487	
	0.611283	
	0.631018	
	0.635129	
	0.638254	
	0.640392	
	0.610789	
	0.605197	
	0.602073	
	0.596810	
	0.590725	
	0.584640	
	0.569181	
	0.315418	
	0.249962	
	0.247824	
	0.241410	
	0.239766	
	0.239272	
	0.231049	
	0.215919	
	0.206545	
	0.189770	
	0.188454	
	0.194375	
	0.198322	
	0.209834	
	0.240753	
	0.260323	
	0.275947	
	0.279072	
	0.273974	
	0.269040	
	0.271013	
	0.278250	
	0.306372	
	0.344198	
	0.386958	
	0.435803	
	0.432185	
	0.488759	
	0.529710	
	0.554215	
	0.585956	
	0.599770	
	0.608158	
	0.611447	
	0.612598	
	0.611776	
	0.613092	
	0.599112	
	0.574443	
	0.529874	
	0.451920	
	0.303412	
	0.287953	
	0.286144	
	0.319036	
	0.341238	
	0.351599	
	0.381695	
	0.394194	
	0.329890	
	0.282526	
	0.262790	
	0.246509	
	0.245686	
	0.249140	
	0.248811	
	0.250949	
	0.258185	
	0.270355	
	0.286802	
	0.304070	
	0.337620	
	0.366236	
	0.351270	
	0.350777	
	0.371992	
	0.435803	
	0.527572	
	0.556188	
	0.569510	
	0.579871	
	0.588422	
	0.597961	
	0.599935	
	0.598455	
	0.600264	0.075711
	0.595494	
	0.596810	
	0.592205	
	0.593685	
	0.593192	
	0.577075	
	0.562438	
	0.558820	
	0.547801	
	0.522638	
	0.491884	
	0.435310	
	0.368210	
	0.343376	
	0.314431	
	0.302261	
	0.296834	
	0.299629	
	0.292722	
	0.272493	
	0.268382	
	0.266737	
	0.279072	
	0.285650	
	0.290913	
	0.316733	
	0.325450	
	0.367881	
	0.454551	
	0.473464	
	0.508659	
	0.523625	
	0.531026	
	0.534315	
	0.549281	
	0.561451	
	0.567536	
	0.573457	
	0.584640	
	0.586613	
	0.584475	
	0.586942	
	0.585298	
	0.581844	
	0.582831	
	0.571976	
	0.565234	
	0.559477	
	0.549281	
	0.543854	
	0.535631	
	0.541222	
	0.532999	
	0.530861	
	0.516882	
	0.520500	
	0.500436	
	0.511455	
	0.525105	
	0.536782	
	0.571976	
	0.566220	
	0.542373	
	0.545663	
	0.554873	
	0.573950	
	0.569674	
	0.556682	
	0.557175	
	0.596152	
	0.616710	
	0.621972	
	0.613749	
	0.577568	
	0.588587	
	0.627893	
	0.641379	
	0.658812	
	0.666377	
	0.665061	
	0.666541	
	0.668515	
	0.656016	
	0.648615	
	0.654042	
	0.657496	
	0.631182	
	0.580528	
	0.476918	
	0.309662	
	0.245686	
	0.202762	
	0.166910	
	0.143885	
	0.142076	
	0.147503	
	0.155233	
	0.171515	
	0.217728	
	0.246838	0.133666
	0.259008	
	0.299465	
	0.547143	
	0.591054	
	0.619506	
	0.636938	
	0.631511	
	0.594508	
	0.552899	
	0.389918	
	0.294367	
	0.246673	
	0.274467	
	0.369196	
	0.553886	
	0.597139	
	0.615230	
	0.629209	
	0.630689	
	0.631511	
	0.607664	
	0.544676	
	0.476918	
	0.528230	
	0.539907	
	0.474287	
	0.352915	
	0.388274	
	0.367716	
	0.276769	
	0.251278	
	0.239601	
	0.233516	
	0.261146	
	0.256870	
	0.258679	
	0.246344	
	0.229076	
	0.222826	
	0.215590	
	0.211314	
	0.198980	
	0.204571	
	0.210492	
	0.214274	
	0.224800	
	0.238121	
	0.246509	
	0.249962	
	0.256541	
	0.278414	
	0.292393	
	0.331206	
	0.365907	
	0.438434	
	0.491884	
	0.508988	
	0.534315	
	0.559642	
	0.566220	
	0.560300	
	0.565562	
	0.574279	
	0.578061	
	0.570332	
	0.570496	
	0.567700	
	0.557668	
	0.530039	
	0.492542	
	0.428896	
	0.418535	
	0.359329	
	0.325450	
	0.333508	
	0.362782	
	0.335153	
	0.313938	
	0.302919	
	0.283348	
	0.290913	
	0.295518	
	0.302919	
	0.317062	
	0.334824	
	0.336633	
	0.338113	
	0.355546	
	0.417219	
	0.498298	
	0.506192	
	0.523625	
	0.547143	
	0.562438	
	0.575430	
	0.577568	
	0.575595	
	0.581680	
	0.590725	
	0.596974	0.146150
	0.598784	
	0.595165	
	0.587929	
	0.576910	
	0.569510	
	0.538755	
	0.487937	
	0.448302	
	0.428073	
	0.472313	
	0.391892	
	0.313280	
	0.290420	
	0.283348	
	0.291406	
	0.290913	
	0.300945	
	0.352421	
	0.471326	
	0.532341	
	0.566385	
	0.568687	
	0.576252	
	0.591383	
	0.623288	
	0.652891	
	0.662923	
	0.657167	
	0.647793	
	0.636609	
	0.640063	
	0.651740	
	0.651740	
	0.655687	
	0.651740	
	0.619506	
	0.551912	
	0.276441	
	0.254567	
	0.275783	
	0.264270	
	0.246838	
	0.256541	
	0.285650	
	0.401760	
	0.582666	
	0.621479	
	0.652398	
	0.668350	
	0.663581	
	0.634143	
	0.572470	
	0.320845	
	0.246838	
	0.231707	
	0.254567	
	0.342554	
	0.492542	
	0.558984	
	0.570661	
	0.572963	
	0.464255	
	0.352750	
	0.310319	
	0.291735	
	0.309497	
	0.326272	
	0.357026	
	0.548130	
	0.598290	
	0.631676	
	0.641543	
	0.629373	
	0.606349	
	0.602731	
	0.602402	
	0.597139	
	0.590067	
	0.592534	
	0.587765	
	0.561286	
	0.536782	
	0.535960	
	0.551748	
	0.386300	
	0.249798	
	0.221511	
	0.207367	
	0.199308	
	0.194704	
	0.203913	
	0.219702	
	0.242726	
	0.285321	
	0.334166	
	0.282032	
	0.243877	
	0.226609	
	0.204407	
	0.196019	0.085382
	0.202433	
	0.282854	
	0.608322	
	0.618519	
	0.617532	
	0.601415	
	0.587271	
	0.567043	
	0.488266	
	0.470011	
	0.546649	
	0.582666	
	0.611118	
	0.643681	
	0.631676	
	0.597139	
	0.605197	
	0.583982	
	0.566878	
	0.550597	
	0.391399	
	0.351928	
	0.284006	
	0.245851	
	0.249962	
	0.268053	
	0.265257	
	0.264106	
	0.252100	
	0.248811	
	0.241246	
	0.233681	
	0.226938	
	0.224800	
	0.223978	
	0.232694	
	0.237463	
	0.244206	
	0.255390	
	0.256870	
	0.261639	
	0.256047	
	0.254567	
	0.255554	
	0.261475	
	0.274960	
	0.294860	
	0.323147	
	0.326272	
	0.326601	
	0.325779	
	0.351270	
	0.378571	
	0.441066	
	0.539578	
	0.569510	
	0.584311	
	0.595165	
	0.601086	
	0.606513	
	0.605691	
	0.604046	
	0.598948	
	0.606842	
	0.605197	
	0.598290	
	0.578061	
	0.572799	
	0.566056	
	0.559642	
	0.545498	
	0.509975	
	0.450111	
	0.390905	
	0.364591	
	0.357849	
	0.347159	
	0.312786	
	0.284006	
	0.262790	
	0.257528	
	0.263777	
	0.281374	
	0.294202	
	0.292558	
	0.311142	
	0.374130	
	0.530203	
	0.582173	
	0.613092	
	0.622795	
	0.618519	
	0.616216	
	0.636281	
	0.646642	
	0.653713	
	0.651575	
	0.662430	
	0.663581	
	0.651904	0.123177
	0.639241	
	0.620986	
	0.614572	
	0.620492	
	0.600428	
	0.571483	
	0.507343	
	0.353737	
	0.368539	
	0.323147	
	0.297985	
	0.321009	
	0.312128	
	0.249962	
	0.226773	
	0.214110	
	0.208518	
	0.215754	
	0.240259	
	0.270355	
	0.323970	
	0.361631	
	0.306866	
	0.276605	
	0.286802	
	0.324956	
	0.437776	
	0.428896	
	0.423304	
	0.533986	
	0.576910	
	0.590560	
	0.613092	
	0.638912	
	0.645161	
	0.650753	
	0.648944	
	0.639734	
	0.621808	
	0.608158	
	0.590889	
	0.567865	
	0.576252	
	0.595330	
	0.580364	
	0.527572	
	0.470011	
	0.460472	
	0.483003	
	0.580857	
	0.617368	
	0.627893	
	0.632827	
	0.628058	
	0.617861	
	0.568687	
	0.352257	
	0.330055	
	0.311635	
	0.245851	
	0.216248	
	0.215261	
	0.214439	
	0.218550	
	0.241739	
	0.309333	
	0.558491	
	0.572141	
	0.561615	
	0.549116	
	0.377584	
	0.309168	
	0.280223	
	0.310813	
	0.415574	
	0.511784	
	0.585627	
	0.609967	
	0.610625	
	0.608651	
	0.564905	
	0.517211	
	0.280388	
	0.222497	
	0.192894	
	0.182040	
	0.205558	
	0.237463	
	0.224306	
	0.220359	
	0.226280	
	0.240588	
	0.252923	
	0.247495	
	0.250620	
	0.239437	
	0.228254	
	0.224964	
	0.230556	
	0.236641	0.101991
	0.256541	
	0.271671	
	0.298314	
	0.354230	
	0.377090	
	0.366565	
	0.410640	
	0.378406	
	0.391563	
	0.404062	
	0.411298	
	0.405707	
	0.462117	
	0.526092	
	0.542702	
	0.571319	
	0.578390	
	0.578061	
	0.571319	
	0.586778	
	0.592205	
	0.597632	
	0.595001	
	0.587271	
	0.582995	
	0.578390	
	0.578061	
	0.585791	
	0.581022	
	0.570332	
	0.556353	
	0.551090	
	0.534150	
	0.524118	
	0.537440	
	0.506686	
	0.415081	
	0.331041	
	0.315911	
	0.287130	
	0.301274	
	0.330877	
	0.333179	
	0.313938	
	0.297656	
	0.301603	
	0.314431	
	0.321009	
	0.356039	
	0.372979	
	0.407516	
	0.445835	
	0.503396	
	0.551748	
	0.575101	
	0.586285	
	0.593356	
	0.599277	
	0.597468	
	0.601744	
	0.591547	
	0.593356	
	0.591383	
	0.590560	
	0.585956	
	0.587765	
	0.586449	
	0.590560	
	0.591547	
	0.597139	
	0.592370	
	0.577733	
	0.560958	
	0.510468	
	0.428073	
	0.388932	
	0.363605	
	0.314431	
	0.292064	
	0.258350	
	0.259337	
	0.274960	
	0.288611	
	0.301932	
	0.364591	
	0.533493	
	0.560464	
	0.572634	
	0.605526	
	0.643517	
	0.673778	
	0.687921	
	0.699433	
	0.703216	
	0.693677	
	0.682330	
	0.666212	
	0.660456	
	0.646642	
	0.634307	0.151175
	0.608487	
	0.583489	
	0.524941	
	0.304563	
	0.255390	
	0.228089	
	0.191250	
	0.181382	
	0.180724	
	0.175791	
	0.167732	
	0.169870	
	0.194868	
	0.224142	
	0.289597	
	0.535137	
	0.608651	
	0.637103	
	0.638583	
	0.597797	
	0.599770	
	0.636281	
	0.662265	
	0.662101	
	0.658318	
	0.669337	
	0.680521	
	0.674764	
	0.687099	
	0.711768	
	0.709301	
	0.663581	
	0.584311	
	0.339758	
	0.349461	
	0.404391	
	0.335482	
	0.526585	
	0.606678	
	0.630196	
	0.623288	
	0.618683	
	0.586613	
	0.495667	
	0.548787	
	0.513593	
	0.356533	
	0.294202	
	0.229240	
	0.186480	
	0.171515	
	0.174310	
	0.167403	
	0.142734	
	0.137307	
	0.138951	
	0.140760	
	0.142569	
	0.144050	
	0.146188	
	0.147339	
	0.148983	
	0.178751	
	0.193223	
	0.200789	
	0.211150	
	0.225129	
	0.229240	
	0.241739	
	0.252265	
	0.278250	
	0.346172	
	0.371170	
	0.396332	
	0.406364	
	0.522474	
	0.544511	
	0.561286	
	0.549116	
	0.539249	
	0.541058	
	0.524941	
	0.501752	
	0.406036	
	0.383998	
	0.450275	
	0.458992	
	0.498134	
	0.502903	
	0.505863	
	0.447973	
	0.382353	
	0.337127	
	0.323970	
	0.327588	
	0.327423	
	0.352586	
	0.355711	
	0.349626	
	0.329068	0.106691
	0.326601	
	0.308181	
	0.327423	
	0.366401	
	0.437941	
	0.500929	
	0.539578	
	0.483168	
	0.389261	
	0.370019	
	0.403075	
	0.397484	
	0.464255	
	0.549774	
	0.561286	
	0.575430	
	0.590232	
	0.588751	
	0.575595	
	0.568194	
	0.566878	
	0.579377	
	0.578555	
	0.579871	
	0.580857	
	0.592205	
	0.591547	
	0.587436	
	0.563589	
	0.552406	
	0.532177	
	0.534973	
	0.530697	
	0.509317	
	0.499285	
	0.403240	
	0.381038	
	0.398635	
	0.467379	
	0.439421	
	0.362453	
	0.311142	
	0.281539	
	0.269204	
	0.261639	
	0.265915	
	0.286802	
	0.302096	
	0.343212	
	0.361467	
	0.379393	
	0.359329	
	0.348474	
	0.353408	
	0.365907	
	0.514744	
	0.555366	
	0.586613	
	0.611118	
	0.618354	
	0.618190	
	0.633156	
	0.643188	
	0.636609	
	0.647135	
	0.640392	
	0.630360	
	0.630524	
	0.629373	
	0.640392	
	0.635952	
	0.621972	
	0.624768	
	0.627729	
	0.636116	
	0.622630	
	0.603553	
	0.590725	
	0.540564	
	0.444848	
	0.554050	
	0.595001	
	0.607007	
	0.612105	
	0.593850	
	0.608651	
	0.618190	
	0.617532	
	0.619506	
	0.603553	
	0.590725	
	0.581022	
	0.617532	
	0.660950	
	0.661443	
	0.646806	
	0.638419	
	0.619834	
	0.583324	
	0.527736	0.168815
	0.437283	
	0.334495	
	0.293380	
	0.259501	
	0.233516	
	0.224306	
	0.214932	
	0.222333	
	0.267066	
	0.363276	
	0.323147	
	0.271507	
	0.240588	
	0.237957	
	0.235819	
	0.214768	
	0.206709	
	0.200460	
	0.197664	
	0.208683	
	0.227925	
	0.223813	
	0.255061	
	0.255390	
	0.250127	
	0.247331	
	0.275454	
	0.404226	
	0.567700	
	0.549939	
	0.503725	
	0.284006	
	0.251278	
	0.234339	
	0.205722	
	0.206380	
	0.257528	
	0.433994	
	0.559313	
	0.592205	
	0.584804	
	0.518527	
	0.443039	
	0.378900	
	0.432843	
	0.529217	
	0.472642	
	0.267889	
	0.199473	
	0.181547	
	0.183191	
	0.202433	
	0.217728	
	0.257692	
	0.336140	
	0.384327	
	0.391399	
	0.505205	
	0.574279	
	0.622301	
	0.637761	
	0.652233	
	0.641050	
	0.604869	
	0.545005	
	0.351106	
	0.354230	
	0.353408	
	0.337949	
	0.317227	
	0.308839	
	0.302919	
	0.308017	
	0.329890	
	0.382682	
	0.507837	
	0.520829	
	0.534315	
	0.552899	
	0.576581	
	0.583160	
	0.582502	
	0.574772	
	0.571319	
	0.574608	
	0.576910	
	0.567372	
	0.573292	
	0.559148	
	0.553557	
	0.530697	
	0.513428	
	0.503067	
	0.381531	
	0.322490	
	0.289926	
	0.290584	
	0.292887	
	0.296011	
	0.291242	0.145590
	0.283183	
	0.288282	
	0.287624	
	0.289762	
	0.315418	
	0.363440	
	0.400608	
	0.332357	
	0.336633	
	0.359822	
	0.414094	
	0.454880	
	0.466228	
	0.524941	
	0.525598	
	0.543360	
	0.542867	
	0.546649	
	0.547472	
	0.575759	
	0.594179	
	0.610296	
	0.613421	
	0.609309	
	0.610460	
	0.605197	
	0.581351	
	0.562438	
	0.560793	
	0.577404	
	0.588258	
	0.604704	
	0.631018	
	0.647957	
	0.658812	
	0.670982	
	0.675587	
	0.653713	
	0.640721	
	0.638912	
	0.642695	
	0.644833	
	0.636609	
	0.630853	
	0.577075	
	0.310484	
	0.265422	
	0.266079	
	0.337784	
	0.524283	
	0.550432	
	0.509975	
	0.488924	
	0.586285	
	0.618354	
	0.643517	
	0.666541	
	0.666706	
	0.673120	
	0.680027	
	0.692362	
	0.705190	
	0.708314	
	0.685783	
	0.661772	
	0.628222	
	0.547636	
	0.263284	
	0.205393	
	0.186152	
	0.191579	
	0.186645	
	0.174968	
	0.172337	
	0.171350	
	0.164607	
	0.189276	
	0.204736	
	0.206709	
	0.223155	
	0.275783	
	0.594672	
	0.641708	
	0.645490	
	0.619999	
	0.563589	
	0.501587	
	0.463103	
	0.391563	
	0.542702	
	0.587929	
	0.555530	
	0.539413	
	0.368210	
	0.240259	
	0.196348	
	0.197993	
	0.238286	
	0.326930	
	0.488595	0.174330
	0.388274	
	0.320187	
	0.348145	
	0.364263	
	0.512113	
	0.404720	
	0.271178	
	0.249140	
	0.230720	
	0.223649	
	0.207860	
	0.198815	
	0.201282	
	0.219537	
	0.238286	
	0.281374	
	0.351764	
	0.269204	
	0.223978	
	0.200295	
	0.205887	
	0.217070	
	0.208518	
	0.192730	
	0.181876	
	0.168061	
	0.159344	
	0.163949	
	0.202433	
	0.205065	
	0.206709	
	0.234503	
	0.286637	
	0.394030	
	0.307853	
	0.315911	
	0.453565	
	0.599770	
	0.647299	
	0.667364	
	0.667528	
	0.656838	
	0.632662	
	0.616545	
	0.584969	
	0.521816	
	0.361960	
	0.339922	
	0.331699	
	0.349954	
	0.379722	
	0.489582	
	0.472478	
	0.397155	
	0.361631	
	0.341074	
	0.370512	
	0.405213	
	0.412450	
	0.347323	
	0.335646	
	0.356862	
	0.377090	
	0.379886	
	0.384162	
	0.376762	
	0.359000	
	0.348803	
	0.381531	
	0.446493	
	0.527079	
	0.551912	
	0.549445	
	0.565234	
	0.575595	
	0.592041	
	0.593850	
	0.598619	
	0.601744	
	0.603882	
	0.597303	
	0.598455	
	0.596481	
	0.589080	
	0.575430	
	0.567372	
	0.554708	
	0.565398	
	0.563918	
	0.564411	
	0.550925	
	0.540071	
	0.521487	
	0.506192	
	0.432349	
	0.335482	
	0.328903	
	0.319529	
	0.319200	
	0.324299	0.134593
	0.343705	
	0.343705	
	0.341238	
	0.399951	
	0.546485	
	0.573457	
	0.581844	
	0.571319	
	0.579706	
	0.606513	
	0.646477	
	0.684303	
	0.689401	
	0.694500	
	0.693513	
	0.695158	
	0.684303	
	0.669008	
	0.657332	
	0.658647	
	0.649602	
	0.640721	
	0.620163	
	0.513593	
	0.305221	
	0.311306	
	0.276769	
	0.266573	
	0.257363	
	0.259172	
	0.271178	
	0.281210	
	0.317391	
	0.412450	
	0.570990	
	0.608487	
	0.605526	
	0.562438	
	0.309333	
	0.282361	
	0.251114	
	0.223155	
	0.206051	
	0.214439	
	0.229898	
	0.265586	
	0.366729	
	0.452085	
	0.537933	
	0.577404	
	0.616874	
	0.611611	
	0.617203	
	0.647299	
	0.655029	
	0.658976	
	0.635294	
	0.605197	
	0.661608	
	0.695815	
	0.705683	
	0.708314	
	0.717031	
	0.722787	
	0.728050	
	0.713413	
	0.661279	
	0.507837	
	0.222991	
	0.189605	
	0.139280	
	0.127275	
	0.129084	
	0.131222	
	0.133031	
	0.134840	
	0.136484	
	0.138129	
	0.139609	
	0.141912	
	0.143063	
	0.145036	
	0.145859	
	0.238450	
	0.562931	
	0.640392	
	0.625426	
	0.586778	
	0.520829	
	0.285157	
	0.214110	
	0.196842	
	0.215261	
	0.259008	
	0.296340	
	0.323805	
	0.341402	
	0.514251	
	0.485306	
	0.392879	0.128064
	0.432678	
	0.344034	
	0.290913	
	0.287130	
	0.399128	
	0.590067	
	0.608158	
	0.605526	
	0.580528	
	0.559642	
	0.558491	
	0.562273	
	0.597303	
	0.612763	
	0.603224	
	0.599112	
	0.612763	
	0.610296	
	0.612105	
	0.584640	
	0.533164	
	0.520829	
	0.376104	
	0.278907	
	0.240917	
	0.220030	
	0.215590	
	0.218550	
	0.230063	
	0.236641	
	0.233023	
	0.233187	
	0.248647	
	0.274303	
	0.296834	
	0.326601	
	0.336140	
	0.357355	
	0.374130	
	0.483497	
	0.544183	
	0.545663	
	0.552406	
	0.567043	
	0.572799	
	0.581351	
	0.583324	
	0.592370	
	0.582337	
	0.561122	
	0.524447	
	0.465735	
	0.360151	
	0.322983	
	0.313280	
	0.293873	
	0.293380	
	0.299958	
	0.300781	
	0.295518	
	0.279401	
	0.286144	
	0.290749	
	0.305715	
	0.319529	
	0.327423	
	0.323476	
	0.315582	
	0.325121	
	0.328739	
	0.342883	
	0.405213	
	0.523625	
	0.557175	
	0.569510	
	0.580528	
	0.590232	
	0.601579	
	0.596152	
	0.599277	
	0.601415	
	0.604869	
	0.606513	
	0.610625	
	0.614407	
	0.608158	
	0.611118	
	0.630524	
	0.644339	
	0.642366	
	0.635129	
	0.630360	
	0.627235	
	0.627071	
	0.632334	
	0.633156	
	0.622959	
	0.606184	
	0.574279	
	0.529217	0.153152
	0.373472	
	0.453565	
	0.548459	
	0.597468	
	0.628386	
	0.665719	
	0.675916	
	0.664074	
	0.647135	
	0.612598	
	0.585956	
	0.597303	
	0.584311	
	0.597632	
	0.607829	
	0.623946	
	0.627235	
	0.593027	
	0.583160	
	0.599441	
	0.583489	
	0.390576	
	0.269040	
	0.241575	
	0.233187	
	0.235983	
	0.240753	
	0.258514	
	0.328575	
	0.569345	
	0.616710	
	0.625591	
	0.655358	
	0.644339	
	0.585298	
	0.362947	
	0.294202	
	0.326601	
	0.326601	
	0.321667	
	0.285157	
	0.305057	
	0.574443	
	0.582337	
	0.597139	
	0.562109	
	0.507508	
	0.552241	
	0.558491	
	0.561451	
	0.479878	
	0.303412	
	0.220688	
	0.191579	
	0.175955	
	0.174146	
	0.190921	
	0.202433	
	0.242562	
	0.324463	
	0.573292	
	0.573292	
	0.522474	
	0.342389	
	0.526750	
	0.595165	
	0.595165	
	0.602237	
	0.583818	
	0.372321	
	0.335482	
	0.325450	
	0.304563	
	0.330548	
	0.266244	
	0.248482	
	0.275125	
	0.289104	
	0.290420	
	0.304563	
	0.260323	
	0.226938	
	0.200789	
	0.191250	
	0.189934	
	0.178093	
	0.186316	
	0.209505	
	0.231543	
	0.247495	
	0.242397	
	0.236805	
	0.255883	
	0.282197	
	0.371828	
	0.545992	
	0.505370	
	0.323147	
	0.281539	
	0.275783	0.113707
	0.301767	
	0.324627	
	0.357520	
	0.384491	
	0.352421	
	0.325943	
	0.353244	
	0.484812	
	0.525598	
	0.529546	
	0.513099	
	0.410805	
	0.360315	
	0.347652	
	0.305057	
	0.281374	
	0.281539	
	0.285815	
	0.293873	
	0.293709	
	0.287130	
	0.288775	
	0.283677	
	0.274138	
	0.268875	
	0.265915	
	0.274631	
	0.281374	
	0.294696	
	0.317391	
	0.335646	
	0.331370	
	0.331370	
	0.337455	
	0.364756	
	0.447151	
	0.489253	
	0.517047	
	0.536124	
	0.555366	
	0.573292	
	0.567536	
	0.551419	
	0.547143	
	0.564576	
	0.583489	
	0.595988	
	0.603553	
	0.608816	
	0.604211	
	0.602895	
	0.595330	
	0.586449	
	0.570167	
	0.544018	
	0.509152	
	0.433007	
	0.368703	
	0.347816	
	0.340745	
	0.305715	
	0.294531	
	0.287295	
	0.308510	
	0.339922	
	0.415245	
	0.500107	
	0.551090	
	0.592205	
	0.618519	
	0.631840	
	0.651411	
	0.664897	
	0.676738	
	0.690717	
	0.697296	
	0.705354	
	0.687921	
	0.659470	
	0.625097	
	0.587929	
	0.591712	
	0.611940	
	0.605855	
	0.561615	
	0.480536	
	0.553392	
	0.605362	
	0.609638	
	0.580857	
	0.572141	
	0.593850	
	0.603882	
	0.567536	
	0.336304	
	0.280059	
	0.299958	
	0.356533	
	0.506850	
	0.558162	0.154211
	0.570990	
	0.606349	
	0.615394	
	0.646477	
	0.660292	
	0.649273	
	0.583489	
	0.353079	
	0.252758	
	0.237299	
	0.274138	
	0.533822	
	0.585298	
	0.640228	
	0.620328	
	0.362453	
	0.217399	
	0.178915	
	0.164114	
	0.173488	
	0.194539	
	0.190099	
	0.221840	
	0.503396	
	0.626084	
	0.649766	
	0.643681	
	0.641379	
	0.661114	
	0.691375	
	0.702723	
	0.694664	
	0.685125	
	0.679534	
	0.670159	
	0.643846	
	0.586778	
	0.324299	
	0.236312	
	0.188618	
	0.139116	
	0.133031	
	0.134511	
	0.136649	
	0.137800	
	0.139116	
	0.140596	
	0.142405	
	0.143392	
	0.145201	
	0.146517	
	0.192894	
	0.207531	
	0.227925	
	0.264928	
	0.309497	
	0.321667	
	0.331535	
	0.402253	
	0.534315	
	0.592370	
	0.600757	
	0.601908	
	0.610625	
	0.613585	
	0.594836	
	0.583324	
	0.576910	
	0.585298	
	0.574279	
	0.565398	
	0.532670	
	0.451591	
	0.340580	
	0.307195	
	0.275125	
	0.246015	
	0.240917	
	0.233516	
	0.231543	
	0.224471	
	0.226444	
	0.233681	
	0.257199	
	0.302261	
	0.378571	
	0.532670	
	0.562438	
	0.560958	
	0.561615	
	0.576746	
	0.573292	
	0.539084	
	0.457183	
	0.495667	
	0.509646	
	0.454223	
	0.410147	
	0.466557	
	0.470669	0.143865
	0.527572	
	0.534479	
	0.548459	
	0.553886	
	0.569345	
	0.588587	
	0.592534	
	0.577733	
	0.558326	
	0.494351	
	0.352586	
	0.313280	
	0.325779	
	0.318378	
	0.302425	
	0.303905	
	0.312457	
	0.303741	
	0.294531	
	0.295353	
	0.284170	
	0.309333	
	0.363276	
	0.424455	
	0.511619	
	0.571812	
	0.587107	
	0.591383	
	0.597468	
	0.627235	
	0.643846	
	0.649931	
	0.650589	
	0.632662	
	0.637596	
	0.636774	
	0.623124	
	0.607007	
	0.615723	
	0.646971	
	0.665884	
	0.662430	
	0.648615	
	0.622959	
	0.605362	
	0.617203	
	0.632991	
	0.640885	
	0.669008	
	0.683152	
	0.687428	
	0.682823	
	0.697624	
	0.684961	
	0.664074	
	0.651246	
	0.644175	
	0.601579	
	0.532999	
	0.280881	
	0.225458	
	0.208518	
	0.204571	
	0.194539	
	0.188947	
	0.171021	
	0.166581	
	0.169870	
	0.167074	
	0.173488	
	0.175626	
	0.173488	
	0.238779	
	0.540564	
	0.510797	
	0.333015	
	0.270355	
	0.299958	
	0.354230	
	0.364591	
	0.411792	
	0.576088	
	0.644504	
	0.605197	
	0.577239	
	0.616710	
	0.639405	
	0.645655	
	0.649931	
	0.623617	
	0.524118	
	0.356368	
	0.308839	
	0.258514	
	0.240588	
	0.267395	
	0.282032	
	0.270849	
	0.285157	
	0.364920	0.169833
	0.563753	
	0.597468	
	0.556353	
	0.283512	
	0.202762	
	0.172830	
	0.174146	
	0.186480	
	0.189276	
	0.204736	
	0.231707	
	0.253416	
	0.272165	
	0.299465	
	0.347652	
	0.505863	
	0.512277	
	0.560629	
	0.571648	
	0.576581	
	0.574443	
	0.559313	
	0.507179	
	0.337291	
	0.273480	
	0.243548	
	0.234174	
	0.234832	
	0.244535	
	0.244371	
	0.251442	
	0.268053	
	0.284006	
	0.273645	
	0.257692	
	0.257034	
	0.258350	
	0.259994	
	0.253745	
	0.257034	
	0.262790	
	0.279730	
	0.312293	
	0.394030	
	0.494680	
	0.486950	
	0.431691	
	0.419850	
	0.439586	
	0.390741	
	0.348968	
	0.347816	
	0.341567	
	0.337949	
	0.499120	
	0.561944	
	0.574443	
	0.571812	
	0.576910	
	0.576252	
	0.584147	
	0.571648	
	0.571319	
	0.580528	
	0.578555	
	0.569345	
	0.561122	
	0.555695	
	0.580857	
	0.592534	
	0.594672	
	0.584147	
	0.560464	
	0.525434	
	0.433500	
	0.485470	
	0.575759	
	0.619177	
	0.647793	
	0.664074	
	0.646971	
	0.629209	
	0.580528	
	0.548130	
	0.607993	
	0.623782	
	0.638419	
	0.636116	
	0.608651	
	0.620492	
	0.614736	
	0.584475	
	0.526256	
	0.544183	
	0.579377	
	0.601579	
	0.577568	
	0.322161	
	0.258843	
	0.215590	0.118778
	0.196513	
	0.206545	
	0.233516	
	0.262461	
	0.309497	
	0.316404	
	0.300452	
	0.267066	
	0.269862	
	0.323147	
	0.551090	
	0.557833	
	0.574608	
	0.587271	
	0.585462	
	0.605855	
	0.619341	
	0.622795	
	0.630853	
	0.621315	
	0.538262	
	0.308510	
	0.286637	
	0.503890	
	0.534973	
	0.570332	
	0.600593	
	0.588751	
	0.603060	
	0.586120	
	0.507672	
	0.525105	
	0.560464	
	0.613256	
	0.650753	
	0.671311	
	0.669666	
	0.636774	
	0.486292	
	0.284664	
	0.530203	
	0.595823	
	0.594836	
	0.576252	
	0.550103	
	0.555695	
	0.558491	
	0.516553	
	0.362453	
	0.249962	
	0.197006	
	0.163292	
	0.158687	
	0.176613	
	0.181711	
	0.188783	
	0.190592	
	0.192894	
	0.206709	
	0.210821	
	0.201117	
	0.208847	
	0.218221	
	0.244371	
	0.251114	
	0.265586	
	0.290913	
	0.331864	
	0.544840	
	0.596317	
	0.631511	
	0.660292	
	0.682823	
	0.692691	
	0.681014	
	0.654042	
	0.655194	
	0.640392	
	0.622137	
	0.598619	
	0.580035	
	0.558162	
	0.567372	
	0.573785	
	0.622466	
	0.634965	
	0.619506	
	0.537933	
	0.299301	
	0.248976	
	0.224471	
	0.200624	
	0.181053	
	0.181053	
	0.191743	
	0.199144	
	0.209834	
	0.210327	
	0.207038	
	0.219537	0.132447
	0.227267	
	0.231378	
	0.226609	
	0.238779	
	0.263448	
	0.285815	
	0.295847	
	0.312786	
	0.295025	
	0.285157	
	0.275125	
	0.279565	
	0.289762	
	0.297985	
	0.367881	
	0.546485	
	0.585956	
	0.596481	
	0.598784	
	0.600593	
	0.601250	
	0.591712	
	0.573621	
	0.542538	
	0.501094	
	0.479549	
	0.503890	
	0.469024	
	0.445835	
	0.374788	
	0.367058	
	0.356039	
	0.369196	
	0.376597	
	0.353737	
	0.348639	
	0.338278	
	0.348803	
	0.354559	
	0.316404	
	0.298807	
	0.298314	
	0.291078	
	0.285650	
	0.277263	
	0.265586	
	0.271836	
	0.333015	
	0.347488	
	0.350448	
	0.445342	
	0.607007	
	0.650753	
	0.660456	
	0.667035	
	0.677396	
	0.689566	
	0.698118	
	0.698611	
	0.692691	
	0.703874	
	0.706505	
	0.694006	
	0.658647	
	0.627564	
	0.565727	
	0.335482	
	0.272493	
	0.267889	
	0.277263	
	0.285815	
	0.277921	
	0.265751	
	0.263448	
	0.267560	
	0.334824	
	0.320845	
	0.282854	
	0.442381	
	0.626742	
	0.645819	
	0.641708	
	0.611776	
	0.529052	
	0.503067	
	0.616216	
	0.668186	
	0.681014	
	0.665719	
	0.652069	
	0.640392	
	0.647299	
	0.657989	
	0.650918	
	0.619670	
	0.571812	
	0.509152	
	0.560300	
	0.589903	
	0.548459	0.143597
	0.361138	
	0.263284	
	0.238615	
	0.225458	
	0.237957	
	0.249140	
	0.255225	
	0.243384	
	0.248318	
	0.236641	
	0.234503	
	0.221840	
	0.239437	
	0.238943	
	0.206380	
	0.182369	
	0.174804	
	0.178751	
	0.187467	
	0.178751	
	0.171679	
	0.179080	
	0.213452	
	0.225458	
	0.199144	
	0.175955	
	0.186645	
	0.217235	
	0.259994	
	0.299301	
	0.313280	
	0.325779	
	0.387451	
	0.564411	
	0.623617	
	0.641872	
	0.650589	
	0.639241	
	0.585462	
	0.529710	
	0.447480	
	0.417548	
	0.510468	
	0.434652	
	0.293215	
	0.270027	
	0.251771	
	0.228418	
	0.251607	
	0.304728	
	0.374130	
	0.466228	
	0.550268	
	0.579871	
	0.553886	
	0.480043	
	0.315418	
	0.289268	
	0.268875	
	0.262955	
	0.248811	
	0.250127	
	0.250456	
	0.253416	
	0.268053	
	0.289268	
	0.330877	
	0.376104	
	0.361796	
	0.441888	
	0.495831	
	0.499778	
	0.494022	
	0.526421	
	0.539742	
	0.510797	
	0.497805	
	0.561615	
	0.607335	
	0.614736	
	0.622137	
	0.610625	
	0.607664	
	0.590725	
	0.578555	
	0.549774	
	0.475931	
	0.289268	
	0.263613	
	0.249140	
	0.269369	
	0.273316	
	0.282690	
	0.322818	
	0.335482	
	0.331535	
	0.314760	
	0.322983	
	0.329561	
	0.337784	0.142841
	0.331699	
	0.332357	
	0.325779	
	0.392879	
	0.528230	
	0.542538	
	0.562273	
	0.592041	
	0.605691	
	0.623617	
	0.624439	
	0.607829	
	0.584640	
	0.587271	
	0.598126	
	0.582995	
	0.584640	
	0.584475	
	0.592534	
	0.588422	
	0.576088	
	0.582502	
	0.596317	
	0.611940	
	0.632005	
	0.644010	
	0.649437	
	0.657496	
	0.647135	
	0.634800	
	0.631840	
	0.615559	
	0.589903	
	0.554215	
	0.544347	
	0.554544	
	0.544676	
	0.493364	
	0.539084	
	0.638419	
	0.632334	
	0.564247	
	0.252594	
	0.185658	
	0.149312	
	0.146845	
	0.147832	
	0.149970	
	0.529052	
	0.673613	
	0.696473	
	0.693842	
	0.699269	
	0.691868	
	0.702723	
	0.714235	
	0.715880	
	0.719004	
	0.727063	
	0.722458	
	0.731668	
	0.725747	
	0.718018	
	0.684796	
	0.643352	
	0.624604	
	0.631018	
	0.619012	
	0.592370	
	0.353573	
	0.327259	
	0.281703	
	0.237299	
	0.209176	
	0.183191	
	0.188125	
	0.196677	
	0.188947	
	0.222497	
	0.239108	
	0.227596	
	0.243877	
	0.259666	
	0.238121	
	0.194704	
	0.162798	
	0.140760	
	0.135991	
	0.137471	
	0.138787	
	0.140103	
	0.141583	
	0.143227	
	0.144543	
	0.145859	
	0.147174	
	0.148655	
	0.192072	
	0.234174	
	0.255883	0.137038
	0.296176	
	0.379722	
	0.587600	
	0.611447	
	0.607829	
	0.606678	
	0.452742	
	0.297820	
	0.290584	
	0.323312	
	0.409654	
	0.519349	
	0.583324	
	0.609802	
	0.634636	
	0.651904	
	0.625097	
	0.537769	
	0.279565	
	0.240424	
	0.256870	
	0.288446	
	0.297985	
	0.319365	
	0.353573	
	0.359164	
	0.303412	
	0.266737	
	0.241246	
	0.213945	
	0.198157	
	0.198157	
	0.204736	
	0.217235	
	0.239108	
	0.262132	
	0.284664	
	0.323805	
	0.441395	
	0.541880	
	0.575101	
	0.589409	
	0.592534	
	0.582831	
	0.582831	
	0.583489	
	0.576088	
	0.583489	
	0.588587	
	0.573457	
	0.550761	
	0.546321	
	0.530532	
	0.513757	
	0.488266	
	0.431363	
	0.385807	
	0.348803	
	0.338936	
	0.331864	
	0.305221	
	0.284006	
	0.277592	
	0.283019	
	0.285157	
	0.285157	
	0.282197	
	0.303083	
	0.336304	
	0.408667	
	0.461459	
	0.444355	
	0.390412	
	0.495173	
	0.566714	
	0.572963	
	0.576910	
	0.574114	
	0.584640	
	0.585298	
	0.587436	
	0.580035	
	0.584147	
	0.595001	
	0.601908	
	0.601250	
	0.594836	
	0.588587	
	0.595823	
	0.591054	
	0.575101	
	0.560629	
	0.564905	
	0.589903	
	0.599770	
	0.593192	
	0.586285	
	0.590889	
	0.588094	
	0.580857	0.167214
	0.573457	
	0.562438	
	0.552570	
	0.547965	
	0.515731	
	0.318214	
	0.281374	
	0.280059	
	0.303248	
	0.379722	
	0.535631	
	0.581351	
	0.601908	
	0.619177	
	0.614078	
	0.600264	
	0.613749	
	0.630031	
	0.633320	
	0.625755	
	0.629209	
	0.632169	
	0.624110	
	0.614572	
	0.614901	
	0.637103	
	0.655522	
	0.651082	
	0.644997	
	0.661443	
	0.667364	
	0.636281	
	0.575595	
	0.430211	
	0.407516	
	0.554708	
	0.592863	
	0.613256	
	0.654371	
	0.681507	
	0.691210	
	0.657167	
	0.603882	
	0.544840	
	0.322325	
	0.294696	
	0.239930	
	0.182862	
	0.153259	
	0.135169	
	0.136484	
	0.137800	
	0.139280	
	0.235325	
	0.577897	
	0.605691	
	0.617861	
	0.614078	
	0.610625	
	0.572141	
	0.540071	
	0.508824	
	0.569016	
	0.601250	
	0.571976	
	0.272000	
	0.216248	
	0.206874	
	0.216248	
	0.231707	
	0.239766	
	0.252100	
	0.264435	
	0.264928	
	0.242726	
	0.246344	
	0.236805	
	0.227267	
	0.216248	
	0.200624	
	0.186809	
	0.182533	
	0.173817	
	0.161647	
	0.160825	
	0.178422	
	0.192237	
	0.213781	
	0.246344	
	0.324627	
	0.543689	
	0.561122	
	0.531684	
	0.583324	
	0.623946	
	0.635458	
	0.622795	
	0.599277	
	0.579871	
	0.541551	0.121854
	0.458827	
	0.399128	
	0.474945	
	0.485963	
	0.419028	
	0.460308	
	0.423633	
	0.333015	
	0.331864	
	0.327423	
	0.337291	
	0.329561	
	0.409160	
	0.508659	
	0.516224	
	0.391727	
	0.320187	
	0.302425	
	0.274960	
	0.268546	
	0.275618	
	0.283019	
	0.300616	
	0.316404	
	0.308346	
	0.326765	
	0.337949	
	0.328246	
	0.308839	
	0.318378	
	0.318871	
	0.315418	
	0.316898	
	0.350448	
	0.453894	
	0.505863	
	0.527736	
	0.553721	
	0.578884	
	0.598784	
	0.615559	
	0.619177	
	0.613914	
	0.603553	
	0.586942	
	0.571648	
	0.545663	
	0.518198	
	0.526914	
	0.539084	
	0.570003	
	0.566878	
	0.396826	
	0.287788	
	0.258679	
	0.244535	
	0.226280	
	0.225293	
	0.238121	
	0.250620	
	0.274796	
	0.301274	
	0.353573	
	0.488101	
	0.571648	
	0.602237	
	0.602073	
	0.577733	
	0.557010	
	0.522309	
	0.336798	
	0.338771	
	0.488266	
	0.574114	
	0.623617	
	0.657167	
	0.662594	
	0.658976	
	0.648286	
	0.651411	
	0.676902	
	0.695651	
	0.706505	
	0.714893	
	0.717853	
	0.705519	
	0.680027	
	0.649602	
	0.622466	
	0.600757	
	0.616381	
	0.653220	
	0.629538	
	0.583818	
	0.567372	
	0.561615	
	0.527408	
	0.549939	
	0.551419	
	0.518198	0.139058
	0.300287	
	0.241904	
	0.213945	
	0.191085	
	0.215426	
	0.255061	
	0.244700	
	0.201775	
	0.195197	
	0.226773	
	0.252429	
	0.270520	
	0.312786	
	0.531355	
	0.434981	
	0.311800	
	0.557668	
	0.597797	
	0.621479	
	0.640228	
	0.662594	
	0.692197	
	0.702394	
	0.676738	
	0.610460	
	0.437283	
	0.219537	
	0.158358	
	0.159016	
	0.178257	
	0.167403	
	0.169705	
	0.197664	
	0.227431	
	0.260159	
	0.275125	
	0.255225	
	0.239601	
	0.205393	
	0.185823	
	0.196019	
	0.181547	
	0.184343	
	0.211150	
	0.240588	
	0.287295	
	0.338607	
	0.343540	
	0.345021	
	0.341896	
	0.365907	
	0.512935	
	0.571154	
	0.619506	
	0.652398	
	0.659470	
	0.667364	
	0.683645	
	0.697296	
	0.708479	
	0.725583	
	0.731010	
	0.731832	
	0.723280	
	0.691868	
	0.652398	
	0.606184	
	0.351928	
	0.188454	
	0.139774	
	0.139938	
	0.141747	
	0.143392	
	0.145036	
	0.147503	
	0.148983	
	0.196842	
	0.210821	
	0.215919	
	0.225951	
	0.234339	
	0.232365	
	0.229240	
	0.220524	
	0.223484	
	0.228911	
	0.224142	
	0.224142	
	0.231049	
	0.243219	
	0.259501	
	0.271507	
	0.281539	
	0.297491	
	0.342718	
	0.496818	
	0.550597	
	0.580364	
	0.592534	
	0.597303	0.127042
	0.593521	
	0.592370	
	0.596810	
	0.601579	
	0.602731	
	0.596646	
	0.582666	
	0.557833	
	0.556517	
	0.560958	
	0.566549	
	0.569345	
	0.556517	
	0.536617	
	0.420344	
	0.305879	
	0.280552	
	0.278085	
	0.282526	
	0.260159	
	0.247660	
	0.237792	
	0.241904	
	0.244535	
	0.264106	
	0.278414	
	0.295682	
	0.279236	
	0.277263	
	0.331535	
	0.537111	
	0.568358	
	0.583489	
	0.597139	
	0.629373	
	0.647957	
	0.653878	
	0.657660	
	0.654371	
	0.660950	
	0.673613	
	0.678383	
	0.659141	
	0.646148	
	0.664239	
	0.671969	
	0.660456	
	0.663252	
	0.664568	
	0.674271	
	0.691210	
	0.679205	
	0.620328	
	0.325285	
	0.253087	
	0.221017	
	0.219373	
	0.288446	
	0.491555	
	0.370183	
	0.276276	
	0.250785	
	0.235819	
	0.257034	
	0.326437	
	0.548130	
	0.594014	
	0.608322	
	0.588258	
	0.510961	
	0.524612	
	0.573128	
	0.569016	
	0.639734	
	0.689237	
	0.694006	
	0.671640	
	0.625920	
	0.558984	
	0.305221	
	0.244371	
	0.228911	
	0.227431	
	0.237628	
	0.263941	
	0.346830	
	0.482016	
	0.329068	
	0.268875	
	0.226773	
	0.206709	
	0.208025	
	0.282032	
	0.623617	
	0.661936	
	0.695980	
	0.702065	
	0.682494	
	0.665061	
	0.646971	0.172248
	0.611611	
	0.589080	
	0.612763	
	0.629209	
	0.625262	
	0.546649	
	0.248482	
	0.192894	
	0.168883	
	0.149970	
	0.140103	
	0.141254	
	0.142569	
	0.144050	
	0.145365	
	0.146517	
	0.147997	
	0.149312	
	0.150957	
	0.153095	
	0.324299	
	0.582995	
	0.602402	
	0.597468	
	0.579871	
	0.573950	
	0.378077	
	0.257692	
	0.240917	
	0.227760	
	0.225458	
	0.226116	
	0.235490	
	0.248482	
	0.247495	
	0.243055	
	0.235490	
	0.249469	
	0.254403	
	0.256705	
	0.259666	
	0.255554	
	0.277756	
	0.299794	
	0.325121	
	0.364263	
	0.384985	
	0.414259	
	0.458005	
	0.460308	
	0.503890	
	0.531355	
	0.555530	
	0.577733	
	0.580035	
	0.586120	
	0.596646	
	0.607829	
	0.623782	
	0.627071	
	0.621808	
	0.616710	
	0.593356	
	0.567207	
	0.521487	
	0.427251	
	0.373637	
	0.397484	
	0.493858	
	0.504548	
	0.502245	
	0.533986	
	0.531190	
	0.502081	
	0.403075	
	0.326437	
	0.313444	
	0.300781	
	0.302096	
	0.311142	
	0.309662	
	0.298149	
	0.294696	
	0.286308	
	0.287624	
	0.285815	
	0.287788	
	0.291242	
	0.292887	
	0.305550	
	0.334495	
	0.352915	
	0.376762	
	0.460965	
	0.511948	
	0.536782	
	0.562602	
	0.583489	
	0.593850	
	0.602237	0.184403
	0.603882	
	0.610625	
	0.605526	
	0.608487	
	0.614243	
	0.619177	
	0.630853	
	0.647628	
	0.667528	
	0.663252	
	0.679040	
	0.700256	
	0.722129	
	0.733970	
	0.746305	
	0.752719	
	0.741535	
	0.714893	
	0.686277	
	0.646313	
	0.563589	
	0.333015	
	0.281045	
	0.305221	
	0.237134	
	0.172830	
	0.142241	
	0.150135	
	0.204900	
	0.234996	
	0.251442	
	0.280223	
	0.324299	
	0.534644	
	0.547965	
	0.593685	
	0.632498	
	0.609473	
	0.323476	
	0.221017	
	0.213617	
	0.220195	
	0.176448	
	0.152766	
	0.149641	
	0.169212	
	0.197828	
	0.247002	
	0.305550	
	0.582666	
	0.675587	
	0.708479	
	0.697789	
	0.652562	
	0.531848	
	0.237957	
	0.167732	
	0.149641	
	0.151286	
	0.214603	
	0.250785	
	0.256541	
	0.279565	
	0.283841	
	0.307853	
	0.308510	
	0.530697	
	0.512606	
	0.486621	
	0.540400	
	0.521816	
	0.523132	
	0.568194	
	0.595494	
	0.615887	
	0.607335	
	0.582502	
	0.559642	
	0.427415	
	0.295847	
	0.271671	
	0.376268	
	0.547965	
	0.575430	
	0.594836	
	0.611611	
	0.620492	
	0.600922	
	0.548294	
	0.322983	
	0.261310	
	0.224471	
	0.191579	
	0.172830	
	0.166252	
	0.177435	
	0.193388	
	0.203255	
	0.216412	
	0.230720	0.124565
	0.242562	
	0.256047	
	0.255061	
	0.249140	
	0.251771	
	0.246344	
	0.252429	
	0.258679	
	0.260652	
	0.279730	
	0.304070	
	0.337455	
	0.364920	
	0.509975	
	0.550597	
	0.552735	
	0.548952	
	0.555530	
	0.567536	
	0.568029	
	0.566714	
	0.578884	
	0.583489	
	0.588094	
	0.592205	
	0.601744	
	0.605033	
	0.611283	
	0.611118	
	0.608322	
	0.589738	
	0.566385	
	0.526421	
	0.475602	
	0.395675	
	0.339922	
	0.327423	
	0.319365	
	0.318871	
	0.310813	
	0.303905	
	0.289433	
	0.274303	
	0.258679	
	0.270355	
	0.275454	
	0.281045	
	0.289762	
	0.319694	
	0.400115	
	0.546156	
	0.557010	
	0.547143	
	0.546814	
	0.553228	
	0.551583	
	0.561780	
	0.582009	
	0.582009	
	0.580035	
	0.585298	
	0.606349	
	0.613256	
	0.637596	
	0.659470	
	0.683481	
	0.690059	
	0.673942	
	0.663910	
	0.674271	
	0.679205	
	0.669831	
	0.665555	
	0.669173	
	0.673613	
	0.655851	
	0.571976	
	0.251771	
	0.197993	
	0.197828	
	0.194539	
	0.188125	
	0.188783	
	0.162469	
	0.154082	
	0.155397	
	0.156878	
	0.198980	
	0.266079	
	0.347159	
	0.570825	
	0.608816	
	0.621644	
	0.648944	
	0.673942	
	0.703381	
	0.699433	
	0.684139	
	0.699762	
	0.712755	0.139599
	0.670159	
	0.602073	
	0.362125	
	0.565234	
	0.617039	
	0.635787	
	0.632334	
	0.630031	
	0.607500	
	0.621972	
	0.648451	
	0.624933	
	0.608322	
	0.602895	
	0.594672	
	0.570990	
	0.522145	
	0.389918	
	0.303248	
	0.277592	
	0.331370	
	0.535302	
	0.594672	
	0.512113	
	0.265751	
	0.218057	
	0.198815	
	0.172830	
	0.158193	
	0.147339	
	0.157371	
	0.213452	
	0.248811	
	0.284664	
	0.270355	
	0.236970	
	0.231049	
	0.240095	
	0.259501	
	0.271836	
	0.310977	
	0.355546	
	0.411134	
	0.532670	
	0.588094	
	0.611118	
	0.614243	
	0.599112	
	0.596152	
	0.637103	
	0.667199	
	0.655687	
	0.643846	
	0.623946	
	0.597797	
	0.582173	
	0.599112	
	0.599606	
	0.559148	
	0.284006	
	0.194539	
	0.149477	
	0.148819	
	0.149970	
	0.151615	
	0.154411	
	0.306372	
	0.377419	
	0.365414	
	0.426100	
	0.576581	
	0.529874	
	0.319694	
	0.312951	
	0.277098	
	0.206709	
	0.186809	
	0.186809	
	0.185987	
	0.200460	
	0.223484	
	0.263941	
	0.323312	
	0.434981	
	0.488924	
	0.496653	
	0.434323	
	0.489253	
	0.392385	
	0.335975	
	0.292229	
	0.266737	
	0.252429	
	0.269698	
	0.304399	
	0.319200	
	0.301439	
	0.291900	
	0.282526	
	0.271013	0.152918
	0.255225	
	0.228418	
	0.215919	
	0.222333	
	0.241575	
	0.266573	
	0.282690	
	0.298478	
	0.299136	
	0.294367	
	0.311306	
	0.343705	
	0.422646	
	0.471162	
	0.513593	
	0.549774	
	0.574443	
	0.578555	
	0.576746	
	0.584475	
	0.587271	
	0.594836	
	0.594508	
	0.591547	
	0.581515	
	0.579542	
	0.582502	
	0.591054	
	0.584969	
	0.590396	
	0.592534	
	0.581022	
	0.572799	
	0.572799	
	0.592370	
	0.591218	
	0.600099	
	0.616381	
	0.630360	
	0.634143	
	0.625920	
	0.615394	
	0.611940	
	0.620163	
	0.595988	
	0.422975	
	0.301439	
	0.290420	
	0.298643	
	0.274796	
	0.272822	
	0.282361	
	0.360809	
	0.591383	
	0.605197	
	0.596810	
	0.548787	
	0.319200	
	0.258021	
	0.232529	
	0.208847	
	0.213123	
	0.263284	
	0.514415	
	0.566714	
	0.575595	
	0.611940	
	0.623946	
	0.628386	
	0.641708	
	0.649437	
	0.650589	
	0.670653	
	0.686606	
	0.701407	
	0.708479	
	0.684303	
	0.624275	
	0.441559	
	0.267066	
	0.257692	
	0.249304	
	0.279565	
	0.248647	
	0.252265	
	0.300287	
	0.529710	
	0.599441	
	0.608487	
	0.609802	
	0.642201	
	0.649602	
	0.639405	
	0.670817	
	0.677067	
	0.677725	
	0.677725	
	0.671640	
	0.652398	
	0.622137	0.171547
	0.592370	
	0.600264	
	0.621644	
	0.613092	
	0.589409	
	0.348474	
	0.215097	
	0.158851	
	0.141747	
	0.142569	
	0.176777	
	0.245686	
	0.345185	
	0.577897	
	0.581186	
	0.360315	
	0.252594	
	0.248153	
	0.238779	
	0.258185	
	0.281210	
	0.261639	
	0.255225	
	0.258514	
	0.260817	
	0.242233	
	0.275454	
	0.313773	
	0.338278	
	0.321174	
	0.247495	
	0.203420	
	0.213617	
	0.239601	
	0.252265	
	0.261803	
	0.268382	
	0.284170	
	0.243877	
	0.203091	
	0.165594	
	0.157864	
	0.159016	
	0.160660	
	0.162634	
	0.193388	
	0.219044	
	0.267395	
	0.438599	
	0.614078	
	0.648286	
	0.657660	
	0.664732	
	0.659798	
	0.634800	
	0.597303	
	0.512277	
	0.334989	
	0.302919	
	0.261310	
	0.239930	
	0.221675	
	0.207367	
	0.194868	
	0.195361	
	0.218879	
	0.256212	
	0.278907	
	0.282197	
	0.279565	
	0.308839	
	0.330713	
	0.336140	
	0.326930	
	0.349461	
	0.526914	
	0.569016	
	0.602237	
	0.619177	
	0.628222	
	0.628880	
	0.627400	
	0.618190	
	0.611940	
	0.621808	
	0.632334	
	0.629702	
	0.614407	
	0.580857	
	0.578555	
	0.570167	
	0.556846	
	0.508495	
	0.346830	
	0.309333	
	0.280223	
	0.257199	
	0.236148	
	0.237134	
	0.251936	0.151066
	0.262297	
	0.257528	
	0.259830	
	0.258185	
	0.273480	
	0.298149	
	0.336798	
	0.387780	
	0.433994	
	0.406858	
	0.504054	
	0.440079	
	0.407516	
	0.432020	
	0.522474	
	0.578061	
	0.606842	
	0.637596	
	0.652562	
	0.653056	
	0.658318	
	0.666212	
	0.667693	
	0.677725	
	0.699269	
	0.711933	
	0.713248	
	0.705025	
	0.682001	
	0.645490	
	0.595165	
	0.390083	
	0.260652	
	0.222826	
	0.220359	
	0.207038	
	0.189441	
	0.193388	
	0.220688	
	0.247824	
	0.278578	
	0.374624	
	0.565891	
	0.531355	
	0.387451	
	0.306537	
	0.264106	
	0.253087	
	0.286966	
	0.306866	
	0.362125	
	0.446164	
	0.568852	
	0.623617	
	0.657332	
	0.685290	
	0.684632	
	0.659963	
	0.599935	
	0.424620	
	0.302425	
	0.301274	
	0.291571	
	0.274467	
	0.275125	
	0.265422	
	0.269862	
	0.414259	
	0.556024	
	0.622630	
	0.668679	
	0.691046	
	0.686770	
	0.697296	
	0.686112	
	0.651246	
	0.592370	
	0.562931	
	0.552406	
	0.281374	
	0.250785	
	0.274303	
	0.321996	
	0.456525	
	0.322818	
	0.231049	
	0.178751	
	0.157206	
	0.152108	
	0.153424	
	0.154246	
	0.155726	
	0.157042	
	0.246838	
	0.269533	
	0.269533	
	0.262461	
	0.280716	
	0.283019	
	0.273480	0.137829
	0.276441	
	0.332686	
	0.556024	
	0.629209	
	0.657660	
	0.665719	
	0.664732	
	0.653549	
	0.650424	
	0.607993	
	0.512606	
	0.525763	
	0.404391	
	0.308510	
	0.264435	
	0.244700	
	0.256705	
	0.299301	
	0.321174	
	0.450769	
	0.472478	
	0.539249	
	0.472807	
	0.297820	
	0.260159	
	0.246673	
	0.240095	
	0.239272	
	0.236477	
	0.217892	
	0.205887	
	0.201611	
	0.193223	
	0.188783	
	0.201611	
	0.222497	
	0.267395	
	0.327588	
	0.440408	
	0.564247	
	0.582173	
	0.609309	
	0.618683	
	0.620163	
	0.610296	
	0.592863	
	0.565234	
	0.519020	
	0.342225	
	0.308839	
	0.287130	
	0.303905	
	0.311964	
	0.363769	
	0.396497	
	0.337291	
	0.317391	
	0.293380	
	0.278250	
	0.264928	
	0.258350	
	0.245522	
	0.234832	
	0.242891	
	0.255225	
	0.257363	
	0.248482	
	0.259008	
	0.262955	
	0.254732	
	0.270191	
	0.298149	
	0.410312	
	0.541551	
	0.320845	
	0.306866	
	0.351435	
	0.359000	
	0.402088	
	0.475767	
	0.523625	
	0.534479	
	0.601086	
	0.638912	
	0.658318	
	0.682658	
	0.700256	
	0.711275	
	0.719004	
	0.727885	
	0.738740	
	0.749758	
	0.742687	
	0.720649	
	0.691868	
	0.662430	
	0.642037	
	0.603060	
	0.561780	
	0.431363	0.132217
	0.442546	
	0.473464	
	0.446986	
	0.347488	
	0.315747	
	0.253416	
	0.182862	
	0.162305	
	0.175955	
	0.209998	
	0.238779	
	0.230556	
	0.234339	
	0.262461	
	0.385642	
	0.592205	
	0.635952	
	0.684468	
	0.725583	
	0.765382	
	0.767191	
	0.720484	
	0.635623	
	0.546649	
	0.418699	
	0.554215	
	0.609309	
	0.616545	
	0.634143	
	0.651904	
	0.638090	
	0.591218	
	0.503396	
	0.368374	
	0.444684	
	0.541716	
	0.432349	
	0.240588	
	0.157206	
	0.144543	
	0.145859	
	0.147997	
	0.148983	
	0.150793	
	0.151779	
	0.153424	
	0.154740	
	0.155726	
	0.157535	
	0.158851	
	0.160331	
	0.244206	
	0.308675	
	0.562931	
	0.616381	
	0.621315	
	0.619670	
	0.633485	
	0.632334	
	0.608816	
	0.576252	
	0.532341	
	0.532012	
	0.453400	
	0.319036	
	0.304563	
	0.305386	
	0.282854	
	0.254238	
	0.237792	
	0.236805	
	0.222168	
	0.217235	
	0.217892	
	0.229734	
	0.260159	
	0.314924	
	0.338278	
	0.311142	
	0.284170	
	0.258350	
	0.232201	
	0.232858	
	0.249304	
	0.317720	
	0.519678	
	0.551583	
	0.546649	
	0.556353	
	0.534973	
	0.528230	
	0.522803	
	0.442381	
	0.381531	
	0.381038	
	0.512113	
	0.559642	
	0.584475	
	0.587600	
	0.594508	0.151251
	0.604375	
	0.618354	
	0.618683	
	0.613585	
	0.607664	
	0.613585	
	0.601744	
	0.575266	
	0.497476	
	0.360480	
	0.279236	
	0.235819	
	0.201282	
	0.189605	
	0.199802	
	0.226938	
	0.273151	
	0.284170	
	0.290255	
	0.302919	
	0.429882	
	0.582502	
	0.632827	
	0.659305	
	0.665226	
	0.660292	
	0.655358	
	0.648780	
	0.641050	
	0.634307	
	0.632498	
	0.623782	
	0.614407	
	0.599277	
	0.586613	
	0.556517	
	0.375446	
	0.283512	
	0.262461	
	0.266902	
	0.269040	
	0.328739	
	0.391892	
	0.439586	
	0.561122	
	0.612269	
	0.640063	
	0.672791	
	0.691210	
	0.701736	
	0.722787	
	0.728379	
	0.657496	
	0.540729	
	0.516389	
	0.540564	
	0.538262	
	0.584147	
	0.624110	
	0.617861	
	0.608322	
	0.576910	
	0.513264	
	0.471655	
	0.503890	
	0.478892	
	0.535631	
	0.486128	
	0.319529	
	0.224142	
	0.171843	
	0.151615	
	0.151121	
	0.202762	
	0.263284	
	0.306372	
	0.271507	
	0.282197	
	0.310484	
	0.285979	
	0.300287	
	0.352915	
	0.316240	
	0.259994	
	0.229734	
	0.230556	
	0.311471	
	0.542702	
	0.589574	
	0.611118	
	0.646313	
	0.654371	
	0.623453	
	0.519842	
	0.270849	
	0.212794	
	0.184178	
	0.189770	
	0.222004	
	0.240588	0.153308
	0.238450	
	0.228418	
	0.220853	
	0.224635	
	0.246838	
	0.264928	
	0.269533	
	0.258514	
	0.289926	
	0.298478	
	0.302590	
	0.307359	
	0.306043	
	0.346007	
	0.436296	
	0.518856	
	0.528559	
	0.509646	
	0.538262	
	0.502903	
	0.349297	
	0.288117	
	0.247824	
	0.232858	
	0.238943	
	0.251442	
	0.285815	
	0.328081	
	0.353244	
	0.412778	
	0.523625	
	0.543360	
	0.543360	
	0.488266	
	0.337127	
	0.304563	
	0.384656	
	0.406858	
	0.418206	
	0.450440	
	0.379393	
	0.301932	
	0.267724	
	0.247824	
	0.237299	
	0.250127	
	0.257363	
	0.263777	
	0.311635	
	0.351106	
	0.371663	
	0.379228	
	0.456032	
	0.537933	
	0.553228	
	0.564905	
	0.570332	
	0.577568	
	0.576746	
	0.576088	
	0.562438	
	0.565398	
	0.567043	
	0.562931	
	0.551912	
	0.557668	
	0.553392	
	0.486950	
	0.383340	
	0.381366	
	0.332028	
	0.332193	
	0.370512	
	0.339264	
	0.303083	
	0.303741	
	0.368867	
	0.544347	
	0.535795	
	0.549116	
	0.591218	
	0.625097	
	0.631018	
	0.626248	
	0.625920	
	0.633320	
	0.609309	
	0.603717	
	0.575759	
	0.574772	
	0.584475	
	0.580035	
	0.574772	
	0.575759	
	0.593192	
	0.634307	
	0.649931	
	0.644175	
	0.666212	
	0.681507	0.209629
	0.688086	
	0.680192	
	0.682330	
	0.680192	
	0.651082	
	0.668844	
	0.668350	
	0.636281	
	0.615394	
	0.593521	
	0.574937	
	0.413601	
	0.305386	
	0.286802	
	0.287953	
	0.311964	
	0.315911	
	0.337127	
	0.317227	
	0.348803	
	0.532506	
	0.563589	
	0.279236	
	0.282854	
	0.554379	
	0.613914	
	0.657989	
	0.675916	
	0.710452	
	0.753048	
	0.776730	
	0.759791	
	0.722129	
	0.661936	
	0.279401	
	0.195032	
	0.187303	
	0.155726	
	0.137142	
	0.138622	
	0.140267	
	0.141583	
	0.143392	
	0.145036	
	0.147010	
	0.148326	
	0.149970	
	0.151779	
	0.164443	
	0.215919	
	0.235161	
	0.252100	
	0.258843	
	0.243713	
	0.271671	
	0.310155	
	0.302425	
	0.249962	
	0.239930	
	0.237957	
	0.248482	
	0.244700	
	0.242891	
	0.221346	
	0.211807	
	0.214932	
	0.221182	
	0.223649	
	0.233681	
	0.250456	
	0.250620	
	0.230720	
	0.229076	
	0.231543	
	0.247989	
	0.296011	
	0.530203	
	0.619012	
	0.640721	
	0.652727	
	0.657332	
	0.658318	
	0.661114	
	0.651904	
	0.637925	
	0.638090	
	0.647464	
	0.643188	
	0.617532	
	0.594343	
	0.546485	
	0.333179	
	0.276441	
	0.234339	
	0.219208	
	0.238121	
	0.252429	
	0.226444	
	0.228254	
	0.233187	0.156868
	0.239108	
	0.256047	
	0.248811	
	0.270027	
	0.303248	
	0.330877	
	0.287953	
	0.264928	
	0.299629	
	0.334660	
	0.348145	
	0.357684	
	0.368210	
	0.346007	
	0.355546	
	0.489417	
	0.579213	
	0.617203	
	0.624604	
	0.619012	
	0.543031	
	0.328575	
	0.348968	
	0.344363	
	0.423797	
	0.545992	
	0.590560	
	0.612434	
	0.622959	
	0.630196	
	0.643352	
	0.653878	
	0.659634	
	0.641708	
	0.614736	
	0.577568	
	0.549939	
	0.391399	
	0.311635	
	0.320516	
	0.352915	
	0.341074	
	0.302919	
	0.302096	
	0.324792	
	0.493858	
	0.551583	
	0.577733	
	0.605691	
	0.621315	
	0.648944	
	0.669008	
	0.645984	
	0.618683	
	0.611447	
	0.607664	
	0.616874	
	0.631347	
	0.646477	
	0.651575	
	0.643352	
	0.653056	
	0.662265	
	0.621479	
	0.615230	
	0.638419	
	0.622301	
	0.600428	
	0.599277	
	0.621150	
	0.640721	
	0.627071	
	0.618683	
	0.574937	
	0.562438	
	0.538426	
	0.288611	
	0.210327	
	0.206051	
	0.220359	
	0.219702	
	0.207367	
	0.190756	
	0.182698	
	0.236148	
	0.381202	
	0.502738	
	0.305221	
	0.289433	
	0.284335	
	0.207860	
	0.193388	
	0.205887	
	0.225787	
	0.241904	
	0.273316	
	0.457676	
	0.572305	
	0.617368	
	0.607993	0.155535
	0.585133	
	0.568852	
	0.526914	
	0.580693	
	0.558984	
	0.276276	
	0.208354	
	0.177929	
	0.173324	
	0.199308	
	0.225293	
	0.253252	
	0.277921	
	0.301603	
	0.312951	
	0.491884	
	0.585791	
	0.603388	
	0.554873	
	0.277592	
	0.187467	
	0.166252	
	0.166087	
	0.168225	
	0.179902	
	0.240259	
	0.331535	
	0.394688	
	0.493858	
	0.384656	
	0.506686	
	0.552077	
	0.561451	
	0.513428	
	0.517704	
	0.548294	
	0.506686	
	0.408174	
	0.510961	
	0.588751	
	0.605526	
	0.612598	
	0.612927	
	0.603882	
	0.581022	
	0.532670	
	0.364920	
	0.295025	
	0.276112	
	0.286144	
	0.320845	
	0.357849	
	0.371170	
	0.360315	
	0.343705	
	0.331041	
	0.321338	
	0.293215	
	0.268546	
	0.273480	
	0.280881	
	0.290420	
	0.264106	
	0.241739	
	0.226116	
	0.222333	
	0.234996	
	0.260652	
	0.291735	
	0.327094	
	0.400444	
	0.538426	
	0.547307	
	0.557668	
	0.563260	
	0.556846	
	0.534808	
	0.542209	
	0.555201	
	0.579542	
	0.577568	
	0.583324	
	0.600428	
	0.597139	
	0.594179	
	0.588422	
	0.549116	
	0.484483	
	0.403569	
	0.410147	
	0.459814	
	0.518856	
	0.566056	
	0.612763	
	0.637103	
	0.646477	
	0.651082	
	0.652233	
	0.653056	
	0.648451	0.144924
	0.641214	
	0.639241	
	0.635129	
	0.600264	
	0.547143	
	0.339264	
	0.269204	
	0.243877	
	0.251442	
	0.320023	
	0.355217	
	0.372650	
	0.399951	
	0.260488	
	0.250456	
	0.278743	
	0.330877	
	0.418206	
	0.371992	
	0.379886	
	0.563918	
	0.593685	
	0.578555	
	0.593027	
	0.609802	
	0.632169	
	0.640557	
	0.645326	
	0.628386	
	0.619999	
	0.620821	
	0.608651	
	0.532999	
	0.260817	
	0.236312	
	0.226773	
	0.251278	
	0.293709	
	0.442546	
	0.586449	
	0.622466	
	0.618190	
	0.602566	
	0.613585	
	0.633978	
	0.615559	
	0.557997	
	0.331041	
	0.247002	
	0.228747	
	0.238779	
	0.227431	
	0.217892	
	0.231707	
	0.243219	
	0.257856	
	0.273645	
	0.263284	
	0.267889	
	0.288446	
	0.336304	
	0.320187	
	0.337949	
	0.334002	
	0.349954	
	0.311635	
	0.294860	
	0.277098	
	0.266737	
	0.291571	
	0.605691	
	0.705190	
	0.742193	
	0.709630	
	0.649273	
	0.582666	
	0.559642	
	0.592698	
	0.626742	
	0.620986	
	0.611940	
	0.585627	
	0.577733	
	0.605362	
	0.635458	
	0.637761	
	0.586942	
	0.507343	
	0.281374	
	0.216412	
	0.196184	
	0.171843	
	0.159838	
	0.159016	
	0.160167	
	0.161154	
	0.162963	
	0.193059	
	0.219702	
	0.248976	0.139220
	0.286802	
	0.280059	
	0.310648	
	0.360315	
	0.527079	
	0.576581	
	0.575430	
	0.556024	
	0.488759	
	0.334989	
	0.352092	
	0.376762	
	0.303741	
	0.268382	
	0.254403	
	0.232201	
	0.227596	
	0.262297	
	0.296834	
	0.355711	
	0.556517	
	0.608816	
	0.596646	
	0.553063	
	0.522967	
	0.512935	
	0.451920	
	0.501423	
	0.423797	
	0.309662	
	0.256047	
	0.247495	
	0.259994	
	0.305715	
	0.415574	
	0.504219	
	0.482674	
	0.332522	
	0.272822	
	0.263448	
	0.285815	
	0.275454	
	0.277098	
	0.297327	
	0.481523	
	0.588916	
	0.625920	
	0.642695	
	0.628715	
	0.594179	
	0.578884	
	0.544018	
	0.363605	
	0.299629	
	0.275618	
	0.246673	
	0.247989	
	0.252594	
	0.277921	
	0.330548	
	0.328410	
	0.305879	
	0.280881	
	0.283183	
	0.299136	
	0.328081	
	0.520500	
	0.585627	
	0.610625	
	0.628715	
	0.638912	
	0.648944	
	0.657167	
	0.653384	
	0.639570	
	0.632498	
	0.634472	
	0.642201	
	0.642530	
	0.649273	
	0.657496	
	0.655522	
	0.643681	
	0.611776	
	0.559642	
	0.338607	
	0.311142	
	0.302590	
	0.336304	
	0.351599	
	0.307195	
	0.319858	
	0.346172	
	0.417219	
	0.565562	
	0.564411	
	0.543196	
	0.466228	
	0.447973	
	0.437776	0.113955
	0.319200	
	0.362947	
	0.312622	
	0.312622	
	0.542867	
	0.589903	
	0.602402	
	0.605855	
	0.609802	
	0.635787	
	0.645984	
	0.631676	
	0.598619	
	0.580528	
	0.509481	
	0.409325	
	0.617368	
	0.667528	
	0.678054	
	0.661279	
	0.643846	
	0.621808	
	0.612763	
	0.625097	
	0.629209	
	0.607007	
	0.598126	
	0.598784	
	0.565234	
	0.495996	
	0.504548	
	0.530697	
	0.570496	
	0.608322	
	0.595659	
	0.430211	
	0.279401	
	0.255718	
	0.233516	
	0.219702	
	0.155891	
	0.154740	
	0.156220	
	0.157864	
	0.158851	
	0.160496	
	0.161647	
	0.163620	
	0.164607	
	0.353573	
	0.328903	
	0.282197	
	0.274796	
	0.273974	
	0.328410	
	0.493364	
	0.493529	
	0.444026	
	0.347816	
	0.334989	
	0.501094	
	0.594672	
	0.636774	
	0.655029	
	0.665884	
	0.662759	
	0.650260	
	0.629209	
	0.583324	
	0.473136	
	0.319200	
	0.236805	
	0.224142	
	0.229076	
	0.247002	
	0.260323	
	0.268053	
	0.280881	
	0.277098	
	0.246509	
	0.226444	
	0.205722	
	0.191579	
	0.194704	
	0.201282	
	0.216412	
	0.234339	
	0.256705	
	0.281210	
	0.315582	
	0.317885	
	0.325285	
	0.338442	
	0.344198	
	0.332851	
	0.318378	
	0.348310	
	0.456032	
	0.538755	
	0.562109	0.125060
	0.575430	
	0.579377	
	0.593027	
	0.593850	
	0.599277	
	0.602402	
	0.609473	
	0.618190	
	0.609309	
	0.592863	
	0.577404	
	0.561286	
	0.531190	
	0.378900	
	0.314431	
	0.299301	
	0.293873	
	0.296011	
	0.310484	
	0.307524	
	0.300616	
	0.286637	
	0.268875	
	0.270849	
	0.274467	
	0.290584	
	0.304399	
	0.332851	
	0.341567	
	0.433994	
	0.426922	
	0.439257	
	0.471491	
	0.296176	
	0.277427	
	0.365743	
	0.573621	
	0.592041	
	0.582666	
	0.578555	
	0.579871	
	0.560464	
	0.577568	
	0.591876	
	0.600264	
	0.601415	
	0.596317	
	0.582666	
	0.550597	
	0.550432	
	0.576746	
	0.612105	
	0.642037	
	0.660456	
	0.680356	
	0.688415	
	0.689895	
	0.672955	
	0.631018	
	0.587436	
	0.441395	
	0.356862	
	0.322983	
	0.370676	
	0.577733	
	0.611776	
	0.646148	
	0.649766	
	0.605033	
	0.494680	
	0.276934	
	0.236312	
	0.274796	
	0.290420	
	0.327752	
	0.500436	
	0.593685	
	0.565562	
	0.567700	
	0.633814	
	0.646806	
	0.658483	
	0.679698	
	0.696638	
	0.714893	
	0.707821	
	0.700091	
	0.671804	
	0.620986	
	0.374788	
	0.226609	
	0.196842	
	0.170857	
	0.157700	
	0.156549	
	0.159344	
	0.172995	
	0.203091	
	0.238779	
	0.286637	0.169515
	0.358835	
	0.488595	
	0.328081	
	0.280223	
	0.244864	
	0.229405	
	0.214932	
	0.198651	
	0.179244	
	0.186645	
	0.253252	
	0.315089	
	0.250620	
	0.184343	
	0.173324	
	0.185165	
	0.212136	
	0.223484	
	0.276276	
	0.380709	
	0.515731	
	0.572305	
	0.627729	
	0.667035	
	0.676409	
	0.659305	
	0.646806	
	0.623453	
	0.591383	
	0.456032	
	0.267395	
	0.212465	
	0.184836	
	0.184671	
	0.211807	
	0.243055	
	0.266079	
	0.290420	
	0.351764	
	0.499614	
	0.361631	
	0.301439	
	0.255390	
	0.238450	
	0.222991	
	0.206051	
	0.195361	
	0.190263	
	0.209176	
	0.229898	
	0.239930	
	0.245357	
	0.231707	
	0.250949	
	0.274138	
	0.288282	
	0.468202	
	0.583653	
	0.618190	
	0.631347	
	0.641872	
	0.651082	
	0.641050	
	0.617368	
	0.612927	
	0.598455	
	0.603553	
	0.598126	
	0.576417	
	0.537111	
	0.473629	
	0.374952	
	0.338771	
	0.341402	
	0.341567	
	0.342554	
	0.321338	
	0.315418	
	0.285157	
	0.271507	
	0.276112	
	0.279236	
	0.278085	
	0.286473	
	0.283677	
	0.285321	
	0.270849	
	0.273809	
	0.285650	
	0.312293	
	0.304728	
	0.291900	
	0.281703	
	0.300123	
	0.318378	
	0.319365	
	0.369690	
	0.499449	
	0.543196	
	0.549774	0.130008
	0.571154	
	0.590067	
	0.600099	
	0.602237	
	0.601415	
	0.592534	
	0.589903	
	0.602402	
	0.630031	
	0.654865	
	0.675093	
	0.674600	
	0.662265	
	0.650918	
	0.656838	
	0.664732	
	0.670159	
	0.675422	
	0.673120	
	0.665226	
	0.667857	
	0.671640	
	0.632005	
	0.492871	
	0.293215	
	0.291078	
	0.269533	
	0.264435	
	0.299794	
	0.304728	
	0.408831	
	0.350941	
	0.270027	
	0.308017	
	0.491555	
	0.565069	
	0.571483	
	0.543360	
	0.534808	
	0.514580	
	0.516882	
	0.538591	
	0.560135	
	0.560958	
	0.561944	
	0.568029	
	0.585627	
	0.616381	
	0.646971	
	0.665555	
	0.672133	
	0.648944	
	0.606678	
	0.412450	
	0.231378	
	0.217070	
	0.233352	
	0.243219	
	0.240095	
	0.249304	
	0.236970	
	0.224142	
	0.235819	
	0.260488	
	0.244535	
	0.215919	
	0.213288	
	0.231543	
	0.259337	
	0.278250	
	0.265751	
	0.211150	
	0.170363	
	0.170034	
	0.171021	
	0.172337	
	0.319529	
	0.565234	
	0.618354	
	0.638090	
	0.653384	
	0.660292	
	0.672462	
	0.678547	
	0.671640	
	0.647628	
	0.624110	
	0.589903	
	0.518198	
	0.529217	
	0.356862	
	0.239601	
	0.214603	
	0.203420	
	0.220524	
	0.253745	
	0.299794	
	0.352421	
	0.450933	
	0.527243	0.141277
	0.540236	
	0.465077	
	0.295025	
	0.243548	
	0.218715	
	0.224306	
	0.212630	
	0.201282	
	0.208189	
	0.224471	
	0.249304	
	0.276276	
	0.281045	
	0.321667	
	0.331206	
	0.325121	
	0.459979	
	0.552570	
	0.563589	
	0.568194	
	0.570167	
	0.558162	
	0.572799	
	0.576088	
	0.574443	
	0.572141	
	0.580693	
	0.589080	
	0.588916	
	0.593192	
	0.590560	
	0.564905	
	0.535137	
	0.440243	
	0.308346	
	0.273151	
	0.267560	
	0.270520	
	0.269040	
	0.267560	
	0.265093	
	0.269369	
	0.263941	
	0.277427	
	0.279401	
	0.288940	
	0.290913	
	0.291242	
	0.290091	
	0.294367	
	0.291900	
	0.317556	
	0.362289	
	0.454387	
	0.450440	
	0.467873	
	0.530039	
	0.549445	
	0.563753	
	0.575759	
	0.578061	
	0.577568	
	0.592205	
	0.594179	
	0.602731	
	0.609802	
	0.602731	
	0.594179	
	0.600099	
	0.607335	
	0.617697	
	0.641214	
	0.666541	
	0.670488	
	0.668679	
	0.682165	
	0.701407	
	0.694829	
	0.673778	
	0.640228	
	0.610460	
	0.583818	
	0.538755	
	0.331041	
	0.258679	
	0.245029	
	0.281210	
	0.375117	
	0.552899	
	0.548623	
	0.328410	
	0.301603	
	0.359164	
	0.389425	
	0.497640	
	0.573621	
	0.532341	
	0.316733	
	0.308675	
	0.354066	0.158321
	0.527408	
	0.562931	
	0.594179	
	0.622959	
	0.660456	
	0.658812	
	0.658812	
	0.657989	
	0.642859	
	0.633320	
	0.650753	
	0.668350	
	0.653220	
	0.489253	
	0.205393	
	0.165594	
	0.157700	
	0.159344	
	0.191414	
	0.380709	
	0.622959	
	0.658154	
	0.650753	
	0.656016	
	0.643846	
	0.599606	
	0.518033	
	0.299958	
	0.219208	
	0.178751	
	0.159673	
	0.160002	
	0.161154	
	0.162798	
	0.163620	
	0.164936	
	0.166087	
	0.167074	
	0.168719	
	0.171350	
	0.226280	
	0.272000	
	0.319694	
	0.372979	
	0.389261	
	0.335153	
	0.285815	
	0.263613	
	0.257528	
	0.255225	
	0.249962	
	0.259994	
	0.280223	
	0.278907	
	0.303905	
	0.521816	
	0.555037	
	0.554379	
	0.417383	
	0.315582	
	0.312622	
	0.292558	
	0.256870	
	0.240588	
	0.226773	
	0.235654	
	0.260323	
	0.322654	
	0.544018	
	0.589245	
	0.599277	
	0.603553	
	0.598619	
	0.600593	
	0.598619	
	0.596317	
	0.600099	
	0.588916	
	0.582009	
	0.581022	
	0.573457	
	0.566878	
	0.570496	
	0.572470	
	0.579377	
	0.589903	
	0.596974	
	0.607335	
	0.603717	
	0.593521	
	0.573621	
	0.531026	
	0.517375	
	0.516553	
	0.498791	
	0.480701	
	0.370841	
	0.327917	
	0.294202	
	0.288940	0.141314
	0.287624	
	0.302919	
	0.292558	
	0.287953	
	0.284828	
	0.277592	
	0.268711	
	0.273480	
	0.281374	
	0.287624	
	0.291735	
	0.301603	
	0.304399	
	0.335153	
	0.351928	
	0.344527	
	0.461294	
	0.555530	
	0.594179	
	0.596974	
	0.581351	
	0.563589	
	0.559642	
	0.571648	
	0.601250	
	0.610954	
	0.605362	
	0.600428	
	0.592863	
	0.570167	
	0.576088	
	0.575595	
	0.581186	
	0.575266	
	0.555037	
	0.533657	
	0.356533	
	0.298807	
	0.274303	
	0.276441	
	0.295682	
	0.365249	
	0.565398	
	0.611776	
	0.640885	
	0.670653	
	0.687757	
	0.683481	
	0.690882	
	0.697953	
	0.681672	
	0.664239	
	0.634472	
	0.639076	
	0.648122	
	0.655851	
	0.657332	
	0.647464	
	0.644504	
	0.663746	
	0.667035	
	0.646806	
	0.630689	
	0.567372	
	0.521651	
	0.532012	
	0.555201	
	0.578390	
	0.605691	
	0.606513	
	0.589409	
	0.619177	
	0.655194	
	0.630031	
	0.591712	
	0.589574	
	0.554708	
	0.537604	
	0.519678	
	0.268382	
	0.214932	
	0.188454	
	0.169870	
	0.154082	
	0.154575	
	0.155891	
	0.157700	
	0.158687	
	0.161482	
	0.161482	
	0.162963	
	0.197170	
	0.317062	
	0.524612	
	0.510797	
	0.509317	
	0.538920	
	0.316076	
	0.231872	
	0.173324	0.163507
	0.165594	
	0.166581	
	0.167568	
	0.169705	
	0.309168	
	0.560629	
	0.600264	
	0.600099	
	0.603388	
	0.661608	
	0.716537	
	0.706505	
	0.658483	
	0.595988	
	0.525105	
	0.485635	
	0.399457	
	0.503561	
	0.564905	
	0.588587	
	0.591876	
	0.585956	
	0.559148	
	0.551419	
	0.582502	
	0.591876	
	0.563589	
	0.558655	
	0.563424	
	0.496653	
	0.240095	
	0.201940	
	0.204078	
	0.209998	
	0.223649	
	0.239272	
	0.289104	
	0.330384	
	0.340087	
	0.322490	
	0.328246	
	0.325285	
	0.303248	
	0.280881	
	0.267066	
	0.268053	
	0.278250	
	0.256541	
	0.268875	
	0.290913	
	0.315253	
	0.310648	
	0.334660	
	0.365414	
	0.395675	
	0.357849	
	0.306701	
	0.312457	
	0.309333	
	0.310155	
	0.296505	
	0.285321	
	0.281374	
	0.280388	
	0.283348	
	0.301767	
	0.303412	
	0.283183	
	0.276112	
	0.268217	
	0.263613	
	0.266079	
	0.269698	
	0.287295	
	0.306208	
	0.338278	
	0.413930	
	0.519349	
	0.558984	
	0.562273	
	0.563589	
	0.569181	
	0.582502	
	0.591218	
	0.604375	
	0.605197	
	0.595494	
	0.583653	
	0.564576	
	0.527572	
	0.512442	
	0.504054	
	0.502903	
	0.453400	
	0.388438	
	0.396003	
	0.343047	
	0.316733	
	0.296834	
	0.297985	0.196981
	0.295682	
	0.292393	
	0.281210	
	0.287788	
	0.311800	
	0.356039	
	0.410147	
	0.388274	
	0.376268	
	0.333344	
	0.330713	
	0.471162	
	0.560135	
	0.586942	
	0.591054	
	0.584147	
	0.579377	
	0.588094	
	0.618683	
	0.643846	
	0.664074	
	0.661608	
	0.655851	
	0.646148	
	0.651575	
	0.646313	
	0.646642	
	0.657496	
	0.698447	
	0.712426	
	0.694829	
	0.635129	
	0.568194	
	0.585956	
	0.635623	
	0.656016	
	0.647135	
	0.636281	
	0.627400	
	0.630031	
	0.618190	
	0.603224	
	0.556517	
	0.336962	
	0.291406	
	0.252429	
	0.183685	
	0.159180	
	0.158851	
	0.160167	
	0.161811	
	0.162963	
	0.164278	
	0.165265	
	0.259008	
	0.435310	
	0.609145	
	0.646477	
	0.675422	
	0.674764	
	0.657660	
	0.634472	
	0.613256	
	0.607500	
	0.604211	
	0.612434	
	0.645490	
	0.605033	
	0.612763	
	0.573292	
	0.316240	
	0.315911	
	0.348639	
	0.332522	
	0.279730	
	0.348803	
	0.508001	
	0.334002	
	0.246509	
	0.222991	
	0.198651	
	0.187467	
	0.189112	
	0.190099	
	0.206709	
	0.204407	
	0.201611	
	0.181876	
	0.175626	
	0.183191	
	0.194375	
	0.212301	
	0.242397	
	0.283841	
	0.380215	
	0.523461	
	0.517540	
	0.439586	
	0.536617	
	0.481030	0.105683
	0.347981	
	0.304399	
	0.315911	
	0.328081	
	0.344034	
	0.354066	
	0.416068	
	0.563424	
	0.576088	
	0.567700	
	0.577897	
	0.574608	
	0.561286	
	0.526421	
	0.354724	
	0.311635	
	0.278907	
	0.255061	
	0.243548	
	0.251771	
	0.259172	
	0.282690	
	0.314760	
	0.365414	
	0.537111	
	0.557504	
	0.497805	
	0.356368	
	0.350777	
	0.430869	
	0.496160	
	0.521816	
	0.517375	
	0.502574	
	0.512935	
	0.503067	
	0.513593	
	0.513099	
	0.531848	
	0.525598	
	0.530368	
	0.525270	
	0.546649	
	0.567372	
	0.576252	
	0.575923	
	0.580857	
	0.582995	
	0.573785	
	0.534644	
	0.505205	
	0.407187	
	0.362947	
	0.378900	
	0.390083	
	0.349954	
	0.298807	
	0.279730	
	0.262626	
	0.284828	
	0.326765	
	0.406693	
	0.482016	
	0.383340	
	0.349626	
	0.323312	
	0.315089	
	0.336304	
	0.382353	
	0.332357	
	0.288446	
	0.271507	
	0.293709	
	0.350941	
	0.493035	
	0.542209	
	0.594672	
	0.617203	
	0.643023	
	0.657003	
	0.661608	
	0.669995	
	0.672791	
	0.669831	
	0.660292	
	0.639899	
	0.623124	
	0.595823	
	0.573457	
	0.574279	
	0.590232	
	0.573621	
	0.532999	
	0.331535	
	0.254074	
	0.223320	
	0.210327	
	0.203091	
	0.209176	
	0.220688	0.148449
	0.247824	
	0.306866	
	0.512113	
	0.570003	
	0.608158	
	0.622301	
	0.629867	
	0.646313	
	0.662923	
	0.686770	
	0.696802	
	0.688250	
	0.638419	
	0.595494	
	0.607664	
	0.602073	
	0.614901	
	0.650424	
	0.671475	
	0.697789	
	0.708150	
	0.704038	
	0.699433	
	0.677396	
	0.639405	
	0.601086	
	0.588751	
	0.592534	
	0.608651	
	0.608816	
	0.569181	
	0.520500	
	0.439914	
	0.528065	
	0.365743	
	0.275947	
	0.259337	
	0.294696	
	0.357849	
	0.288117	
	0.213288	
	0.184178	
	0.202104	
	0.221511	
	0.183191	
	0.156713	
	0.157371	
	0.158687	
	0.160002	
	0.161154	
	0.205887	
	0.501423	
	0.586778	
	0.624439	
	0.653220	
	0.653220	
	0.677560	
	0.685454	
	0.637103	
	0.456032	
	0.323970	
	0.277921	
	0.285321	
	0.266408	
	0.277263	
	0.375117	
	0.554708	
	0.591054	
	0.630524	
	0.637267	
	0.627071	
	0.536453	
	0.226444	
	0.204242	
	0.198486	
	0.185000	
	0.189934	
	0.179738	
	0.163127	
	0.164114	
	0.165758	
	0.167074	
	0.169048	
	0.170363	
	0.171679	
	0.245029	
	0.270191	
	0.277756	
	0.286802	
	0.334331	
	0.538262	
	0.560958	
	0.556846	
	0.566056	
	0.560629	
	0.402417	
	0.281374	
	0.260323	
	0.272000	
	0.289433	0.111660
	0.317391	
	0.404391	
	0.542538	
	0.563753	
	0.574608	
	0.586942	
	0.590560	
	0.585133	
	0.581680	
	0.566220	
	0.555859	
	0.536782	
	0.492706	
	0.446822	
	0.436790	
	0.476260	
	0.459321	
	0.341567	
	0.304563	
	0.312951	
	0.325121	
	0.328410	
	0.301932	
	0.272000	
	0.259666	
	0.247331	
	0.247495	
	0.258514	
	0.268546	
	0.280881	
	0.285321	
	0.292229	
	0.301274	
	0.307853	
	0.352586	
	0.484648	
	0.542045	
	0.546321	
	0.569510	
	0.583324	
	0.585462	
	0.574772	
	0.568687	
	0.572305	
	0.579377	
	0.595330	
	0.598784	
	0.594179	
	0.580693	
	0.569838	
	0.555037	
	0.530039	
	0.526092	
	0.535631	
	0.509975	
	0.462446	
	0.372157	
	0.336962	
	0.314924	
	0.303083	
	0.297820	
	0.295682	
	0.303741	
	0.297820	
	0.313280	
	0.330548	
	0.379064	
	0.387123	
	0.397484	
	0.448631	
	0.425113	
	0.371499	
	0.367881	
	0.415081	
	0.547636	
	0.560135	
	0.520994	
	0.534973	
	0.571648	
	0.608487	
	0.635952	
	0.652562	
	0.664239	
	0.667528	
	0.662923	
	0.661936	
	0.657825	
	0.669008	
	0.654700	
	0.655851	
	0.670817	
	0.654371	
	0.604540	
	0.493035	
	0.312293	
	0.293380	
	0.320680	
	0.308675	
	0.316569	
	0.445671	0.148861
	0.603882	
	0.665226	
	0.688250	
	0.705519	
	0.704367	
	0.680027	
	0.639076	
	0.598619	
	0.594343	
	0.469517	
	0.230885	
	0.188290	
	0.164772	
	0.156549	
	0.158193	
	0.159180	
	0.217399	
	0.248318	
	0.279401	
	0.333508	
	0.371499	
	0.526750	
	0.517869	
	0.476425	
	0.337127	
	0.272987	
	0.275125	
	0.282690	
	0.268053	
	0.243219	
	0.228911	
	0.240588	
	0.271836	
	0.275125	
	0.243219	
	0.199966	
	0.182040	
	0.173981	
	0.174310	
	0.176613	
	0.240917	
	0.533822	
	0.677560	
	0.703545	
	0.678711	
	0.637596	
	0.612598	
	0.578555	
	0.563096	
	0.575430	
	0.614078	
	0.667528	
	0.684632	
	0.686934	
	0.673778	
	0.661772	
	0.635952	
	0.599935	
	0.482016	
	0.241575	
	0.199144	
	0.188454	
	0.188125	
	0.197664	
	0.206545	
	0.220030	
	0.239766	
	0.253416	
	0.258514	
	0.257856	
	0.254732	
	0.268875	
	0.283348	
	0.299465	
	0.306208	
	0.301932	
	0.283019	
	0.264764	
	0.259666	
	0.261803	
	0.262132	
	0.255225	
	0.238943	
	0.232201	
	0.243384	
	0.264270	
	0.269698	
	0.260652	
	0.252100	
	0.260652	
	0.277592	
	0.305879	
	0.320680	
	0.358177	
	0.495338	
	0.508330	
	0.522474	
	0.545334	
	0.566549	
	0.581022	0.111057
	0.589080	
	0.582502	
	0.569510	
	0.571319	
	0.571483	
	0.579871	
	0.587271	
	0.593521	
	0.589903	
	0.579542	
	0.553721	
	0.522638	
	0.495009	
	0.496489	
	0.479549	
	0.460801	
	0.377913	
	0.331206	
	0.320352	
	0.314924	
	0.301932	
	0.290255	
	0.278414	
	0.267889	
	0.272165	
	0.273645	
	0.284170	
	0.291078	
	0.290584	
	0.299794	
	0.313773	
	0.322983	
	0.341402	
	0.386465	
	0.492706	
	0.546156	
	0.564411	
	0.580199	
	0.592698	
	0.592863	
	0.598126	
	0.604211	
	0.608980	
	0.619177	
	0.618354	
	0.616545	
	0.609802	
	0.597797	
	0.584804	
	0.586613	
	0.587436	
	0.589903	
	0.598784	
	0.597632	
	0.590725	
	0.583489	
	0.585791	
	0.600593	
	0.607664	
	0.613256	
	0.626413	
	0.626084	
	0.600264	
	0.540564	
	0.492049	
	0.519020	
	0.562931	
	0.593685	
	0.617861	
	0.624933	
	0.619012	
	0.619834	
	0.642201	
	0.655029	
	0.672133	
	0.662594	
	0.650260	
	0.657167	
	0.642530	
	0.614078	
	0.607171	
	0.605855	
	0.605691	
	0.612927	
	0.611283	
	0.623617	
	0.653384	
	0.679698	
	0.687921	
	0.654536	
	0.563096	
	0.318542	
	0.272822	
	0.230885	
	0.185494	
	0.156713	
	0.154082	
	0.155562	
	0.157206	
	0.158851	0.205342
	0.161154	
	0.217728	
	0.249140	
	0.230885	
	0.259501	
	0.320680	
	0.530861	
	0.530368	
	0.370841	
	0.319858	
	0.303248	
	0.243055	
	0.196842	
	0.175462	
	0.172172	
	0.183191	
	0.190921	
	0.199966	
	0.226938	
	0.282361	
	0.356697	
	0.519513	
	0.491226	
	0.496818	
	0.547307	
	0.586613	
	0.624439	
	0.665061	
	0.648122	
	0.616052	
	0.581022	
	0.535795	
	0.421988	
	0.498956	
	0.569016	
	0.621150	
	0.652727	
	0.677396	
	0.702394	
	0.691868	
	0.637925	
	0.321667	
	0.214603	
	0.174639	
	0.165265	
	0.166745	
	0.167732	
	0.168883	
	0.170199	
	0.171843	
	0.197499	
	0.377419	
	0.561944	
	0.522803	
	0.394523	
	0.284006	
	0.242726	
	0.220359	
	0.220688	
	0.221017	
	0.220524	
	0.234174	
	0.259830	
	0.305221	
	0.333344	
	0.393372	
	0.505699	
	0.514415	
	0.498134	
	0.457018	
	0.396003	
	0.378077	
	0.372321	
	0.395181	
	0.363769	
	0.370841	
	0.362618	
	0.312951	
	0.286637	
	0.282526	
	0.292887	
	0.297985	
	0.293051	
	0.276441	
	0.277921	
	0.277263	
	0.281703	
	0.292229	
	0.312293	
	0.347981	
	0.346830	
	0.315747	
	0.321009	
	0.336140	
	0.409160	
	0.489911	
	0.529874	
	0.555366	
	0.582009	
	0.587107	0.171910
	0.587107	
	0.586449	
	0.585627	
	0.599277	
	0.606184	
	0.610131	
	0.607007	
	0.607171	
	0.606513	
	0.594836	
	0.586778	
	0.584804	
	0.575101	
	0.573621	
	0.562931	
	0.558162	
	0.550103	
	0.511619	
	0.449782	
	0.378735	
	0.445671	
	0.542373	
	0.575430	
	0.586778	
	0.600757	
	0.599441	
	0.614078	
	0.626742	
	0.641872	
	0.648122	
	0.656345	
	0.665719	
	0.676573	
	0.638090	
	0.501094	
	0.261968	
	0.238943	
	0.239601	
	0.268711	
	0.280881	
	0.252429	
	0.255390	
	0.301767	
	0.424455	
	0.522803	
	0.618848	
	0.645161	
	0.663581	
	0.679369	
	0.675422	
	0.664239	
	0.648122	
	0.652562	
	0.652233	
	0.621479	
	0.627729	
	0.665555	
	0.687921	
	0.694171	
	0.705683	
	0.692362	
	0.670159	
	0.658812	
	0.546321	
	0.208025	
	0.169048	
	0.162140	
	0.188125	
	0.206051	
	0.215919	
	0.273151	
	0.571154	
	0.650095	
	0.643517	
	0.603388	
	0.328246	
	0.168061	
	0.156878	
	0.157864	
	0.159673	
	0.160825	
	0.162140	
	0.163620	
	0.164936	
	0.167568	
	0.286473	
	0.305386	
	0.527079	
	0.571319	
	0.573292	
	0.591054	
	0.575101	
	0.570496	
	0.514415	
	0.282854	
	0.250456	
	0.241410	
	0.207860	
	0.191908	
	0.187796	0.138682
	0.187961	
	0.186809	
	0.193717	
	0.187632	
	0.186645	
	0.186809	
	0.202433	
	0.233023	
	0.264270	
	0.334002	
	0.541387	
	0.574279	
	0.586942	
	0.591218	
	0.611118	
	0.624604	
	0.609309	
	0.597468	
	0.570167	
	0.552241	
	0.584147	
	0.589903	
	0.588916	
	0.573128	
	0.566056	
	0.575430	
	0.581351	
	0.580693	
	0.580035	
	0.577404	
	0.565069	
	0.557339	
	0.539578	
	0.531190	
	0.519513	
	0.478892	
	0.339429	
	0.296669	
	0.277756	
	0.263284	
	0.264599	
	0.268382	
	0.263448	
	0.250785	
	0.247331	
	0.252100	
	0.261639	
	0.278250	
	0.296669	
	0.319365	
	0.328081	
	0.307030	
	0.332028	
	0.342554	
	0.380873	
	0.431363	
	0.509810	
	0.543196	
	0.567043	
	0.576417	
	0.584969	
	0.593850	
	0.598948	
	0.605855	
	0.602073	
	0.599935	
	0.581680	
	0.566056	
	0.557339	
	0.554050	
	0.547143	
	0.538591	
	0.512113	
	0.514251	
	0.483168	
	0.495831	
	0.478398	
	0.358506	
	0.321338	
	0.302096	
	0.293873	
	0.284335	
	0.279401	
	0.270191	
	0.272329	
	0.277098	
	0.281539	
	0.291571	
	0.306866	
	0.317556	
	0.337949	
	0.421824	
	0.429060	
	0.346994	
	0.331864	
	0.358506	
	0.465241	
	0.556517	
	0.601744	
	0.637432	0.144466
	0.661279	
	0.678383	
	0.687428	
	0.688579	
	0.687921	
	0.690882	
	0.685619	
	0.689237	
	0.703709	
	0.707163	
	0.661772	
	0.578719	
	0.274303	
	0.257363	
	0.289104	
	0.404226	
	0.572470	
	0.595988	
	0.621808	
	0.637925	
	0.622137	
	0.587600	
	0.590560	
	0.585791	
	0.555695	
	0.541058	
	0.531190	
	0.555366	
	0.557833	
	0.548130	
	0.337620	
	0.236805	
	0.196513	
	0.185000	
	0.178915	
	0.170363	
	0.169541	
	0.167074	
	0.167896	
	0.169377	
	0.194868	
	0.384162	
	0.611447	
	0.670324	
	0.687099	
	0.675422	
	0.650589	
	0.620821	
	0.558820	
	0.404391	
	0.263613	
	0.224306	
	0.210492	
	0.215754	
	0.218550	
	0.234832	
	0.242397	
	0.290255	
	0.438270	
	0.436790	
	0.541222	
	0.562931	
	0.523625	
	0.281703	
	0.246015	
	0.247824	
	0.268875	
	0.282526	
	0.297985	
	0.256870	
	0.205722	
	0.194210	
	0.241246	
	0.292558	
	0.285157	
	0.293873	
	0.268875	
	0.251442	
	0.250620	
	0.269698	
	0.285815	
	0.330384	
	0.403569	
	0.519349	
	0.523954	
	0.547307	
	0.571319	
	0.589903	
	0.603717	
	0.618354	
	0.624768	
	0.610625	
	0.589409	
	0.583324	
	0.578719	
	0.582337	
	0.582995	
	0.584640	
	0.581844	
	0.589738	0.129022
	0.582502	
	0.542209	
	0.368210	
	0.258843	
	0.232858	
	0.226773	
	0.225129	
	0.236148	
	0.253252	
	0.266737	
	0.271836	
	0.266079	
	0.270684	
	0.281539	
	0.290749	
	0.308017	
	0.341731	
	0.477740	
	0.529546	
	0.545663	
	0.552241	
	0.574937	
	0.584311	
	0.587107	
	0.582831	
	0.590232	
	0.594014	
	0.594179	
	0.587929	
	0.576746	
	0.554544	
	0.540729	
	0.512277	
	0.481852	
	0.457018	
	0.489253	
	0.507508	
	0.512113	
	0.452907	
	0.371334	
	0.342225	
	0.322818	
	0.313115	
	0.309826	
	0.345843	
	0.461294	
	0.426100	
	0.371334	
	0.326437	
	0.348968	
	0.491226	
	0.547472	
	0.556024	
	0.534150	
	0.519349	
	0.398799	
	0.526421	
	0.543360	
	0.557668	
	0.555695	
	0.537111	
	0.589409	
	0.604704	
	0.613749	
	0.632334	
	0.656345	
	0.662923	
	0.655358	
	0.647957	
	0.636609	
	0.618190	
	0.607007	
	0.591054	
	0.507014	
	0.284006	
	0.255225	
	0.243384	
	0.226116	
	0.247824	
	0.259501	
	0.247002	
	0.250127	
	0.276605	
	0.306372	
	0.402746	
	0.547965	
	0.591054	
	0.576088	
	0.591876	
	0.625262	
	0.627564	
	0.596646	
	0.585791	
	0.588422	
	0.588094	
	0.585791	
	0.547143	
	0.523625	
	0.578226	
	0.614901	0.153590
	0.618190	
	0.627071	
	0.637103	
	0.649766	
	0.637432	
	0.616216	
	0.584147	
	0.511619	
	0.321174	
	0.293215	
	0.269040	
	0.257199	
	0.234174	
	0.233187	
	0.237463	
	0.256870	
	0.261803	
	0.259337	
	0.254567	
	0.261968	
	0.263284	
	0.238615	
	0.213123	
	0.196348	
	0.189934	
	0.187303	
	0.185987	
	0.186316	
	0.192237	
	0.197664	
	0.216083	
	0.228582	
	0.252758	
	0.284499	
	0.344198	
	0.509481	
	0.585627	
	0.594836	
	0.559148	
	0.559971	
	0.544676	
	0.535137	
	0.539742	
	0.576746	
	0.609638	
	0.642037	
	0.654042	
	0.656345	
	0.662594	
	0.651246	
	0.620821	
	0.589080	
	0.548459	
	0.487937	
	0.384162	
	0.336633	
	0.361138	
	0.424620	
	0.289104	
	0.224964	
	0.192894	
	0.186645	
	0.195361	
	0.215754	
	0.267889	
	0.320352	
	0.539907	
	0.607171	
	0.618354	
	0.608322	
	0.602566	
	0.603224	
	0.611118	
	0.593356	
	0.577733	
	0.600264	
	0.633485	
	0.646971	
	0.630031	
	0.586120	
	0.519349	
	0.331535	
	0.274631	
	0.276934	
	0.279072	
	0.284006	
	0.292064	
	0.353902	
	0.510633	
	0.550925	
	0.531355	
	0.559477	
	0.548294	
	0.520171	
	0.327094	
	0.293215	
	0.318542	
	0.359493	
	0.406529	
	0.308346	0.141209
	0.282854	
	0.265915	
	0.273480	
	0.330877	
	0.564247	
	0.584969	
	0.570496	
	0.551748	
	0.573292	
	0.624110	
	0.661936	
	0.657167	
	0.666048	
	0.682494	
	0.668844	
	0.636609	
	0.597961	
	0.518362	
	0.414423	
	0.591876	
	0.634965	
	0.569674	
	0.340580	
	0.509481	
	0.599441	
	0.639734	
	0.656838	
	0.663088	
	0.650095	
	0.640721	
	0.641050	
	0.618354	
	0.591218	
	0.570825	
	0.555859	
	0.539249	
	0.475767	
	0.515731	
	0.359329	
	0.266244	
	0.243877	
	0.234174	
	0.219373	
	0.205393	
	0.216741	
	0.219866	
	0.198980	
	0.191414	
	0.201611	
	0.213945	
	0.222662	
	0.223155	
	0.239930	
	0.243219	
	0.244206	
	0.240917	
	0.228254	
	0.225458	
	0.229898	
	0.213617	
	0.202927	
	0.202762	
	0.197335	
	0.207696	
	0.238943	
	0.285979	
	0.301603	
	0.337291	
	0.316240	
	0.284664	
	0.279072	
	0.300945	
	0.270849	
	0.268711	
	0.312951	
	0.461788	
	0.570167	
	0.562109	
	0.488595	
	0.337620	
	0.445506	
	0.611611	
	0.610625	
	0.574279	
	0.560958	
	0.567536	
	0.557010	
	0.515566	
	0.316898	
	0.280716	
	0.297820	
	0.279401	
	0.288282	
	0.294038	
	0.263777	
	0.259501	
	0.281539	
	0.390247	
	0.553557	
	0.592205	0.133518
	0.592041	
	0.596810	
	0.611611	
	0.615394	
	0.602237	
	0.576746	
	0.537933	
	0.492871	
	0.436790	
	0.358342	
	0.318871	
	0.344527	
	0.346665	
	0.404226	
	0.505041	
	0.516389	
	0.489911	
	0.480865	
	0.504712	
	0.475602	
	0.390741	
	0.308510	
	0.286473	
	0.274631	
	0.268875	
	0.265257	
	0.255718	
	0.249633	
	0.259501	
	0.263448	
	0.267395	
	0.258185	
	0.272493	
	0.296505	
	0.326930	
	0.356039	
	0.388109	
	0.531026	
	0.571648	
	0.585791	
	0.594836	
	0.609145	
	0.615230	
	0.618683	
	0.609802	
	0.597961	
	0.613256	
	0.619834	
	0.590889	
	0.596646	
	0.597632	
	0.585627	
	0.519678	
	0.564247	
	0.590560	
	0.631676	
	0.673449	
	0.710946	
	0.729036	
	0.728708	
	0.729530	
	0.720978	
	0.707985	
	0.686934	
	0.657660	
	0.625262	
	0.636609	
	0.628880	
	0.591383	
	0.326437	
	0.238615	
	0.214768	
	0.210985	
	0.221182	
	0.235490	
	0.224964	
	0.199144	
	0.181382	
	0.184836	
	0.225458	
	0.254896	
	0.313773	
	0.411627	
	0.565234	
	0.585133	
	0.593850	
	0.534808	
	0.319694	
	0.295847	
	0.293215	
	0.271507	
	0.263119	
	0.245522	
	0.231378	
	0.210656	
	0.199308	
	0.205065	
	0.200460	
	0.197828	
	0.206380	0.204471
	0.231049	
	0.284006	
	0.323147	
	0.276112	
	0.247660	
	0.310319	
	0.564411	
	0.629702	
	0.638583	
	0.650589	
	0.656674	
	0.645161	
	0.649931	
	0.659963	
	0.676738	
	0.679534	
	0.692526	
	0.706505	
	0.684632	
	0.626248	
	0.482345	
	0.235654	
	0.192566	
	0.187467	
	0.207367	
	0.216741	
	0.243219	
	0.447644	
	0.631676	
	0.672297	
	0.693842	
	0.698940	
	0.687263	
	0.654207	
	0.531355	
	0.224142	
	0.171186	
	0.168390	
	0.170034	
	0.171679	
	0.173324	
	0.174804	
	0.176284	
	0.183191	
	0.256541	
	0.246673	
	0.252429	
	0.243713	
	0.208518	
	0.199308	
	0.208025	
	0.210985	
	0.219208	
	0.232201	
	0.246673	
	0.244042	
	0.238779	
	0.251771	
	0.348803	
	0.592698	
	0.638090	
	0.649437	
	0.632991	
	0.605197	
	0.560793	
	0.439257	
	0.311964	
	0.297985	
	0.346007	
	0.486786	
	0.541222	
	0.570167	
	0.579542	
	0.592863	
	0.592863	
	0.619012	
	0.659141	
	0.659470	
	0.635787	
	0.574443	
	0.506028	
	0.479056	
	0.529546	
	0.535302	
	0.524776	
	0.319200	
	0.289104	
	0.258514	
	0.207367	
	0.185494	
	0.190263	
	0.251278	
	0.294531	
	0.309497	
	0.325779	
	0.304563	
	0.269862	
	0.259172	
	0.278414	
	0.324627	0.192319
	0.493858	
	0.570825	
	0.586285	
	0.598290	
	0.592205	
	0.597797	
	0.597139	
	0.598619	
	0.592370	
	0.585462	
	0.572141	
	0.562931	
	0.545498	
	0.537769	
	0.548623	
	0.567700	
	0.543854	
	0.316898	
	0.271671	
	0.259830	
	0.262955	
	0.275947	
	0.287295	
	0.311964	
	0.368703	
	0.520336	
	0.572963	
	0.601744	
	0.608158	
	0.565891	
	0.349626	
	0.337455	
	0.366894	
	0.389754	
	0.417712	
	0.479549	
	0.491720	
	0.422153	
	0.410640	
	0.521816	
	0.545498	
	0.572634	
	0.579706	
	0.608816	
	0.623617	
	0.630524	
	0.623617	
	0.636281	
	0.640228	
	0.651740	
	0.654700	
	0.642201	
	0.614901	
	0.619506	
	0.632662	
	0.657660	
	0.667693	
	0.624933	
	0.575101	
	0.432678	
	0.353079	
	0.317062	
	0.261146	
	0.234832	
	0.301439	
	0.573621	
	0.658154	
	0.695980	
	0.720978	
	0.737424	
	0.718840	
	0.661772	
	0.346830	
	0.189934	
	0.163292	
	0.164443	
	0.165594	
	0.166416	
	0.271671	
	0.565727	
	0.658812	
	0.704203	
	0.718182	
	0.716373	
	0.709795	
	0.672626	
	0.590067	
	0.486128	
	0.371005	
	0.313773	
	0.261475	
	0.216906	
	0.248811	
	0.469024	
	0.537440	
	0.361631	
	0.325779	
	0.546321	
	0.627893	
	0.649766	0.150592
	0.650918	
	0.557833	
	0.288446	
	0.199966	
	0.184671	
	0.203584	
	0.201611	
	0.212630	
	0.192730	
	0.168390	
	0.167568	
	0.168883	
	0.171021	
	0.224800	
	0.251936	
	0.261803	
	0.246015	
	0.223813	
	0.184671	
	0.174146	
	0.175462	
	0.176448	
	0.240095	
	0.579871	
	0.579542	
	0.287459	
	0.222497	
	0.187467	
	0.181547	
	0.186809	
	0.237299	
	0.352092	
	0.604375	
	0.609802	
	0.626084	
	0.676738	
	0.715057	
	0.726405	
	0.716044	
	0.679534	
	0.619177	
	0.475931	
	0.233187	
	0.190263	
	0.177435	
	0.178915	
	0.180067	
	0.180889	
	0.182533	
	0.183356	
	0.190428	
	0.235654	
	0.240259	
	0.248811	
	0.275125	
	0.296998	
	0.294531	
	0.367552	
	0.553721	
	0.591383	
	0.607664	
	0.608980	
	0.600099	
	0.594508	
	0.584475	
	0.575759	
	0.572470	
	0.536617	
	0.487115	
	0.546649	
	0.577568	
	0.585298	
	0.577404	
	0.567536	
	0.552735	
	0.528065	
	0.495996	
	0.453071	
	0.365085	
	0.307688	
	0.307359	
	0.320187	
	0.325121	
	0.303412	
	0.276276	
	0.260652	
	0.255554	
	0.257856	
	0.255061	
	0.256541	
	0.285486	
	0.312293	
	0.341074	
	0.354230	
	0.328739	
	0.332686	
	0.378735	
	0.540400	
	0.577568	
	0.584475	0.145971
	0.587929	
	0.590725	
	0.592041	
	0.597632	
	0.597797	
	0.586449	
	0.568194	
	0.554873	
	0.561451	
	0.559477	
	0.548294	
	0.545663	
	0.552077	
	0.582995	
	0.606678	
	0.626413	
	0.627400	
	0.621150	
	0.626248	
	0.627400	
	0.629538	
	0.621150	
	0.603388	
	0.595988	
	0.570167	
	0.426922	
	0.260652	
	0.220195	
	0.222333	
	0.239108	
	0.277098	
	0.304399	
	0.557997	
	0.631840	
	0.636938	
	0.629044	
	0.629373	
	0.653384	
	0.672133	
	0.669666	
	0.637267	
	0.628551	
	0.643352	
	0.630031	
	0.614736	
	0.598126	
	0.605855	
	0.642695	
	0.656016	
	0.656509	
	0.631840	
	0.641214	
	0.675422	
	0.674929	
	0.656180	
	0.632498	
	0.593850	
	0.583160	
	0.411298	
	0.257363	
	0.196842	
	0.179080	
	0.195690	
	0.250620	
	0.476918	
	0.597632	
	0.605855	
	0.582173	
	0.501752	
	0.335482	
	0.485306	
	0.549445	
	0.579048	
	0.603060	
	0.624933	
	0.634307	
	0.619341	
	0.332357	
	0.209669	
	0.192894	
	0.176942	
	0.179738	
	0.180889	
	0.180724	
	0.168554	
	0.167074	
	0.168883	
	0.171679	
	0.274138	
	0.623782	
	0.655851	
	0.634636	
	0.461952	
	0.238450	
	0.216083	
	0.247989	
	0.366401	
	0.305550	
	0.234010	
	0.207038	0.139992
	0.201611	
	0.213452	
	0.211807	
	0.209998	
	0.204407	
	0.237463	
	0.292229	
	0.393043	
	0.565562	
	0.499449	
	0.330384	
	0.309497	
	0.313444	
	0.246509	
	0.231872	
	0.218221	
	0.215754	
	0.254896	
	0.271178	
	0.281703	
	0.276769	
	0.264599	
	0.268711	
	0.447809	
	0.585627	
	0.600428	
	0.585462	
	0.518198	
	0.385478	
	0.322983	
	0.291242	
	0.275783	
	0.264764	
	0.253745	
	0.250456	
	0.281868	
	0.348310	
	0.499614	
	0.554873	
	0.564411	
	0.556517	
	0.542538	
	0.519185	
	0.506192	
	0.393208	
	0.397977	
	0.416397	
	0.418699	
	0.385313	
	0.400937	
	0.540236	
	0.577404	
	0.568852	
	0.534644	
	0.466228	
	0.341896	
	0.317062	
	0.321503	
	0.334989	
	0.406200	
	0.503725	
	0.537111	
	0.559806	
	0.578226	
	0.589409	
	0.588751	
	0.598619	
	0.607335	
	0.611447	
	0.610296	
	0.601086	
	0.594836	
	0.586285	
	0.577733	
	0.562438	
	0.532670	
	0.494022	
	0.412121	
	0.361467	
	0.336140	
	0.307030	
	0.291571	
	0.279730	
	0.276934	
	0.276112	
	0.285815	
	0.307688	
	0.329232	
	0.327094	
	0.319365	
	0.307688	
	0.326108	
	0.381531	
	0.483332	
	0.528065	
	0.558984	
	0.585133	
	0.588916	
	0.576088	
	0.568194	0.194557
	0.554873	
	0.545169	
	0.354724	
	0.330219	
	0.368045	
	0.443862	
	0.558655	
	0.586449	
	0.601579	
	0.629044	
	0.655522	
	0.678054	
	0.689237	
	0.697624	
	0.718511	
	0.725089	
	0.708150	
	0.680685	
	0.625920	
	0.576088	
	0.516224	
	0.562931	
	0.613092	
	0.650753	
	0.674764	
	0.702723	
	0.721800	
	0.724925	
	0.723609	
	0.716373	
	0.692362	
	0.652727	
	0.595165	
	0.529217	
	0.438763	
	0.327917	
	0.295682	
	0.272987	
	0.299465	
	0.284170	
	0.209505	
	0.163620	
	0.182698	
	0.303905	
	0.604211	
	0.595988	
	0.492213	
	0.320352	
	0.598290	
	0.630031	
	0.634143	
	0.666048	
	0.692526	
	0.697460	
	0.664897	
	0.625755	
	0.489582	
	0.264270	
	0.201611	
	0.175791	
	0.180067	
	0.197664	
	0.200953	
	0.165758	
	0.159673	
	0.161318	
	0.162140	
	0.163785	
	0.165265	
	0.212465	
	0.217070	
	0.183520	
	0.173817	
	0.172172	
	0.172008	
	0.200460	
	0.289762	
	0.536124	
	0.633814	
	0.678218	
	0.682823	
	0.678383	
	0.673449	
	0.593192	
	0.232529	
	0.174968	
	0.167896	
	0.170857	
	0.222168	
	0.226444	
	0.268382	
	0.424126	
	0.608322	
	0.665884	
	0.699762	
	0.712919	
	0.682001	
	0.628386	
	0.402582	
	0.207038	0.116072
	0.171186	
	0.169705	
	0.171021	
	0.172995	
	0.174146	
	0.175626	
	0.176777	
	0.178093	
	0.179244	
	0.180560	
	0.181547	
	0.183027	
	0.226938	
	0.244042	
	0.252594	
	0.260652	
	0.275618	
	0.326437	
	0.401102	
	0.470833	
	0.522474	
	0.549610	
	0.562273	
	0.570003	
	0.584475	
	0.593027	
	0.599770	
	0.600593	
