	0.488266	0.133501
	0.455045	
	0.364756	
	0.328410	
	0.303741	
	0.294202	
	0.286966	
	0.283183	
	0.272329	
	0.266902	
	0.266408	
	0.265915	
	0.274138	
	0.278085	
	0.284006	
	0.297163	
	0.304399	
	0.317062	
	0.338278	
	0.359493	
	0.417712	
	0.485306	
	0.536288	
	0.548623	
	0.570167	
	0.570990	
	0.580528	
	0.581844	
	0.594343	
	0.600922	
	0.605855	
	0.602566	
	0.599770	
	0.594836	
	0.591547	
	0.585133	
	0.585462	
	0.573292	
	0.560958	
	0.534479	
	0.503561	
	0.448466	
	0.373308	
	0.333344	
	0.302096	
	0.297656	
	0.286966	
	0.282197	
	0.275289	
	0.267724	
	0.264928	
	0.267395	
	0.272493	
	0.276605	
	0.278907	
	0.290420	
	0.300287	
	0.309004	
	0.331206	
	0.370019	
	0.429718	
	0.494844	
	0.534808	
	0.559148	
	0.576746	
	0.583653	
	0.588916	
	0.591876	
	0.596646	
	0.605691	
	0.608322	
	0.603553	
	0.598290	
	0.598455	
	0.595001	
	0.587271	
	0.582009	
	0.571976	
	0.555530	
	0.537275	
	0.499449	
	0.463597	
	0.375281	
	0.322983	
	0.300123	
	0.289762	
	0.285650	
	0.281868	
	0.272822	
	0.263777	
	0.265093	
	0.264270	
	0.269698	
	0.275289	
	0.279894	
	0.294696	
	0.301767	
	0.309662	
	0.330055	
	0.358835	
	0.406200	0.053141
	0.477740	
	0.531355	
	0.557010	
	0.572963	
	0.581515	
	0.586942	
	0.589738	
	0.597468	
	0.602237	
	0.603717	
	0.604540	
	0.601744	
	0.598455	
	0.592863	
	0.579213	
	0.573950	
	0.559477	
	0.544676	
	0.524776	
	0.479385	
	0.402746	
	0.358671	
	0.323476	
	0.300287	
	0.293380	
	0.287295	
	0.278907	
	0.271507	
	0.260488	
	0.263777	
	0.262626	
	0.268053	
	0.270684	
	0.273151	
	0.284828	
	0.298807	
	0.309497	
	0.330055	
	0.361467	
	0.438763	
	0.498298	
	0.531355	
	0.560464	
	0.577568	
	0.584311	
	0.584475	
	0.590232	
	0.592698	
	0.603060	
	0.604869	
	0.605033	
	0.603388	
	0.598455	
	0.594014	
	0.583982	
	0.577568	
	0.568194	
	0.552570	
	0.539907	
	0.511784	
	0.446328	
	0.371992	
	0.327259	
	0.301110	
	0.293215	
	0.282690	
	0.275125	
	0.271836	
	0.266079	
	0.268546	
	0.271836	
	0.272987	
	0.281703	
	0.289433	
	0.297656	
	0.308017	
	0.324299	
	0.340745	
	0.365743	
	0.451756	
	0.494515	
	0.537440	
	0.549281	
	0.571154	
	0.578555	
	0.588094	
	0.592698	
	0.593521	
	0.603388	
	0.604540	
	0.603553	
	0.601908	
	0.597468	
	0.592041	
	0.584147	
	0.574443	
	0.565727	
	0.547307	
	0.528065	
	0.485635	0.039742
	0.432185	
	0.365907	
	0.338442	
	0.300616	
	0.284992	
	0.282032	
	0.279730	
	0.279401	
	0.268053	
	0.270849	
	0.266573	
	0.270355	
	0.274138	
	0.279401	
	0.292064	
	0.301603	
	0.311800	
	0.332522	
	0.374459	
	0.447644	
	0.499449	
	0.533493	
	0.553063	
	0.569838	
	0.580693	
	0.584640	
	0.589245	
	0.592205	
	0.605362	
	0.604540	
	0.603717	
	0.599770	
	0.597632	
	0.597468	
	0.588258	
	0.583324	
	0.573950	
	0.558326	
	0.537769	
	0.507179	
	0.452742	
	0.370348	
	0.326601	
	0.298807	
	0.285321	
	0.281374	
	0.273480	
	0.272165	
	0.260488	
	0.265751	
	0.264599	
	0.268711	
	0.273480	
	0.278907	
	0.289597	
	0.297163	
	0.309333	
	0.331041	
	0.354559	
	0.420344	
	0.479056	
	0.518198	
	0.550103	
	0.573128	
	0.579048	
	0.583324	
	0.592698	
	0.593356	
	0.606184	
	0.604704	
	0.606349	
	0.602566	
	0.597797	
	0.592041	
	0.588258	
	0.579871	
	0.572305	
	0.554873	
	0.537440	
	0.510468	
	0.471491	
	0.371992	
	0.331535	
	0.306208	
	0.295189	
	0.287459	
	0.279894	
	0.274467	
	0.264435	
	0.265915	
	0.269040	
	0.270520	
	0.270849	
	0.276934	
	0.290584	
	0.298972	
	0.304728	
	0.334331	
	0.367223	
	0.416890	0.035015
	0.486128	
	0.523625	
	0.560793	
	0.575266	
	0.582502	
	0.590067	
	0.589903	
	0.595823	
	0.605197	
	0.604046	
	0.603060	
	0.600593	
	0.596481	
	0.591876	
	0.584640	
	0.580857	
	0.568852	
	0.548952	
	0.529217	
	0.499778	
	0.446986	
	0.377419	
	0.330877	
	0.311471	
	0.299958	
	0.288282	
	0.279236	
	0.272493	
	0.261803	
	0.266244	
	0.264435	
	0.268546	
	0.264106	
	0.269533	
	0.284170	
	0.302096	
	0.315089	
	0.336798	
	0.367223	
	0.430047	
	0.495009	
	0.530203	
	0.551254	
	0.570661	
	0.580199	
	0.588258	
	0.592205	
	0.592863	
	0.604211	
	0.601579	
	0.605855	
	0.603060	
	0.601250	
	0.594836	
	0.588258	
	0.583160	
	0.573950	
	0.553721	
	0.538920	
	0.503067	
	0.445342	
	0.376597	
	0.333179	
	0.313280	
	0.296176	
	0.289433	
	0.278907	
	0.273480	
	0.259008	
	0.267395	
	0.261639	
	0.264270	
	0.272165	
	0.276276	
	0.287624	
	0.292887	
	0.305879	
	0.333508	
	0.346994	
	0.425606	
	0.496982	
	0.535302	
	0.553228	
	0.574937	
	0.579706	
	0.585627	
	0.589738	
	0.594343	
	0.606349	
	0.602731	
	0.606349	
	0.601086	
	0.598290	
	0.596317	
	0.590396	
	0.580528	
	0.573950	
	0.553557	
	0.532835	
	0.495996	0.029865
	0.421001	
	0.359987	
	0.324792	
	0.297491	
	0.284499	
	0.279401	
	0.274138	
	0.273645	
	0.261968	
	0.270684	
	0.268875	
	0.274796	
	0.274303	
	0.282690	
	0.289104	
	0.296834	
	0.301439	
	0.325779	
	0.337784	
	0.399951	
	0.489088	
	0.528723	
	0.556517	
	0.572963	
	0.573292	
	0.585627	
	0.590396	
	0.584311	
	0.605197	
	0.604704	
	0.606020	
	0.604869	
	0.603553	
	0.599606	
	0.594836	
	0.583324	
	0.577075	
	0.559477	
	0.535302	
	0.507837	
	0.476918	
	0.406200	
	0.332522	
	0.306043	
	0.295847	
	0.287788	
	0.275618	
	0.272000	
	0.258514	
	0.265751	
	0.265586	
	0.271178	
	0.277098	
	0.279565	
	0.288940	
	0.298478	
	0.303905	
	0.320680	
	0.355711	
	0.411134	
	0.482181	
	0.508495	
	0.546649	
	0.566878	
	0.580199	
	0.587107	
	0.589080	
	0.589245	
	0.604869	
	0.602402	
	0.605526	
	0.602237	
	0.599277	
	0.595988	
	0.592041	
	0.582502	
	0.570661	
	0.556024	
	0.537769	
	0.507343	
	0.434487	
	0.385313	
	0.323970	
	0.303905	
	0.291571	
	0.280552	
	0.276769	
	0.279730	
	0.265093	
	0.265586	
	0.261968	
	0.267395	
	0.269369	
	0.274467	
	0.281539	
	0.293215	
	0.301274	
	0.329561	
	0.357520	
	0.387945	0.032704
	0.472642	
	0.512277	
	0.554379	
	0.566056	
	0.574608	
	0.586285	
	0.591876	
	0.592863	
	0.604869	
	0.601086	
	0.605197	
	0.597961	
	0.597632	
	0.593192	
	0.588751	
	0.578719	
	0.575430	
	0.564247	
	0.545005	
	0.510633	
	0.478398	
	0.423468	
	0.329561	
	0.311142	
	0.294860	
	0.289762	
	0.283841	
	0.280059	
	0.264928	
	0.269204	
	0.263448	
	0.268217	
	0.273645	
	0.275783	
	0.285650	
	0.296834	
	0.301932	
	0.321667	
	0.339429	
	0.383504	
	0.441395	
	0.496160	
	0.540893	
	0.564247	
	0.578719	
	0.581844	
	0.589245	
	0.593521	
	0.604211	
	0.602566	
	0.609309	
	0.604704	
	0.605526	
	0.595988	
	0.587271	
	0.581186	
	0.574443	
	0.559313	
	0.536288	
	0.486621	
	0.429389	
	0.368867	
	0.324627	
	0.309662	
	0.293873	
	0.289762	
	0.278414	
	0.274796	
	0.263119	
	0.264764	
	0.260488	
	0.263284	
	0.268217	
	0.273645	
	0.280059	
	0.294696	
	0.299136	
	0.316898	
	0.342883	
	0.382189	
	0.459979	
	0.513428	
	0.543689	
	0.564740	
	0.578719	
	0.584475	
	0.589080	
	0.592205	
	0.606349	
	0.602895	
	0.608158	
	0.602073	
	0.598126	
	0.595330	
	0.591054	
	0.578390	
	0.573128	
	0.554379	
	0.538426	
	0.512606	0.032046
	0.478069	
	0.397484	
	0.333673	
	0.312457	
	0.295518	
	0.281539	
	0.278743	
	0.272822	
	0.260652	
	0.268875	
	0.267724	
	0.269533	
	0.272822	
	0.274796	
	0.284828	
	0.298314	
	0.309826	
	0.319365	
	0.330548	
	0.366565	
	0.423962	
	0.506686	
	0.552077	
	0.562438	
	0.573785	
	0.580364	
	0.588422	
	0.592698	
	0.605526	
	0.602895	
	0.606513	
	0.605362	
	0.602566	
	0.596810	
	0.588751	
	0.575759	
	0.575759	
	0.553721	
	0.542209	
	0.506028	
	0.460472	
	0.388109	
	0.322983	
	0.304070	
	0.288117	
	0.280552	
	0.277427	
	0.273809	
	0.264928	
	0.270355	
	0.270355	
	0.275125	
	0.278907	
	0.278907	
	0.287788	
	0.301439	
	0.307688	
	0.333179	
	0.349132	
	0.413272	
	0.505370	
	0.528888	
	0.552241	
	0.566220	
	0.578555	
	0.581022	
	0.591218	
	0.591383	
	0.604211	
	0.602237	
	0.606842	
	0.602073	
	0.599935	
	0.597303	
	0.588258	
	0.574608	
	0.569838	
	0.553886	
	0.540071	
	0.520665	
	0.483661	
	0.412121	
	0.333179	
	0.310319	
	0.290749	
	0.284828	
	0.270849	
	0.269698	
	0.256376	
	0.259666	
	0.259501	
	0.266737	
	0.268711	
	0.271178	
	0.281374	
	0.291900	
	0.300452	
	0.323970	
	0.348968	
	0.390741	0.028294
	0.435638	
	0.495502	
	0.551912	
	0.561944	
	0.578555	
	0.586120	
	0.592041	
	0.594343	
	0.605855	
	0.603882	
	0.605362	
	0.598455	
	0.601086	
	0.600264	
	0.589409	
	0.577897	
	0.573950	
	0.557833	
	0.548294	
	0.525434	
	0.482181	
	0.433665	
	0.349790	
	0.317885	
	0.293215	
	0.290091	
	0.278414	
	0.278250	
	0.259830	
	0.264270	
	0.258021	
	0.261475	
	0.264764	
	0.268217	
	0.280059	
	0.298314	
	0.302590	
	0.323476	
	0.340909	
	0.392714	
	0.452907	
	0.518362	
	0.552735	
	0.565727	
	0.576746	
	0.584969	
	0.592863	
	0.599441	
	0.608816	
	0.606020	
	0.608980	
	0.599277	
	0.597139	
	0.595494	
	0.589245	
	0.578719	
	0.579542	
	0.561122	
	0.550268	
	0.515073	
	0.471655	
	0.426429	
	0.338771	
	0.324792	
	0.296340	
	0.290913	
	0.280716	
	0.278743	
	0.260817	
	0.267066	
	0.261146	
	0.266408	
	0.268546	
	0.273480	
	0.281045	
	0.290749	
	0.300123	
	0.317062	
	0.337620	
	0.388767	
	0.471162	
	0.498298	
	0.541387	
	0.552406	
	0.568852	
	0.575923	
	0.586449	
	0.592698	
	0.606349	
	0.600428	
	0.606678	
	0.601908	
	0.606513	
	0.597961	
	0.588751	
	0.579542	
	0.575923	
	0.561780	
	0.548459	
	0.515073	0.031006
	0.454387	
	0.390905	
	0.332686	
	0.311471	
	0.292722	
	0.286144	
	0.276441	
	0.275125	
	0.259172	
	0.265751	
	0.260981	
	0.264435	
	0.270520	
	0.273645	
	0.281703	
	0.296340	
	0.297163	
	0.321174	
	0.340087	
	0.395017	
	0.472642	
	0.507672	
	0.547801	
	0.562438	
	0.580199	
	0.587271	
	0.589080	
	0.590232	
	0.602895	
	0.607335	
	0.609802	
	0.606842	
	0.605691	
	0.600922	
	0.590067	
	0.583489	
	0.575923	
	0.555859	
	0.541880	
	0.505370	
	0.463103	
	0.422811	
	0.328903	
	0.311800	
	0.293051	
	0.287130	
	0.282197	
	0.277756	
	0.263613	
	0.268053	
	0.263448	
	0.269369	
	0.272658	
	0.275125	
	0.282032	
	0.300287	
	0.298972	
	0.330055	
	0.356039	
	0.385149	
	0.468695	
	0.507508	
	0.546978	
	0.562273	
	0.581022	
	0.586613	
	0.590725	
	0.594508	
	0.607171	
	0.607500	
	0.609638	
	0.607007	
	0.600593	
	0.600264	
	0.593850	
	0.578061	
	0.573128	
	0.554215	
	0.543689	
	0.508166	
	0.458334	
	0.405707	
	0.324792	
	0.310648	
	0.288775	
	0.283512	
	0.275454	
	0.275125	
	0.259337	
	0.263777	
	0.260817	
	0.265586	
	0.267231	
	0.269204	
	0.273151	
	0.291406	
	0.299136	
	0.313115	
	0.334824	
	0.381038	0.028297
	0.436954	
	0.482016	
	0.558491	
	0.569181	
	0.581351	
	0.584147	
	0.590560	
	0.589738	
	0.605691	
	0.603388	
	0.607335	
	0.604046	
	0.603060	
	0.598455	
	0.590725	
	0.581351	
	0.576417	
	0.556517	
	0.541387	
	0.512771	
	0.483661	
	0.426593	
	0.335811	
	0.319529	
	0.300616	
	0.290091	
	0.284664	
	0.276769	
	0.264764	
	0.268711	
	0.261639	
	0.262626	
	0.267066	
	0.268875	
	0.277427	
	0.291242	
	0.298972	
	0.317556	
	0.339264	
	0.379393	
	0.467544	
	0.498462	
	0.550432	
	0.558820	
	0.574937	
	0.578226	
	0.590560	
	0.592370	
	0.607335	
	0.605855	
	0.607993	
	0.604869	
	0.603060	
	0.594343	
	0.590396	
	0.576252	
	0.574443	
	0.562273	
	0.546978	
	0.526750	
	0.497476	
	0.415739	
	0.328081	
	0.306537	
	0.288940	
	0.282690	
	0.276605	
	0.273645	
	0.258514	
	0.265257	
	0.262132	
	0.271507	
	0.274631	
	0.281045	
	0.288775	
	0.297491	
	0.303741	
	0.319200	
	0.336140	
	0.381531	
	0.430211	
	0.485306	
	0.531355	
	0.557833	
	0.574279	
	0.583489	
	0.590232	
	0.595823	
	0.606842	
	0.602895	
	0.605526	
	0.602731	
	0.603224	
	0.601250	
	0.590725	
	0.581022	
	0.577404	
	0.561122	
	0.548459	
	0.512442	0.029834
	0.469682	
	0.389425	
	0.336633	
	0.317556	
	0.295518	
	0.289762	
	0.286144	
	0.283019	
	0.269533	
	0.268217	
	0.260981	
	0.269369	
	0.274138	
	0.275454	
	0.281210	
	0.298149	
	0.299629	
	0.320516	
	0.330877	
	0.373308	
	0.434652	
	0.491720	
	0.537933	
	0.557175	
	0.576581	
	0.582009	
	0.589903	
	0.595823	
	0.600099	
	0.603388	
	0.607993	
	0.605362	
	0.602402	
	0.595659	
	0.587929	
	0.575923	
	0.574937	
	0.555695	
	0.540893	
	0.501423	
	0.471491	
	0.406200	
	0.336633	
	0.318707	
	0.299958	
	0.291735	
	0.285321	
	0.279894	
	0.269369	
	0.265751	
	0.260159	
	0.265093	
	0.266902	
	0.271178	
	0.277756	
	0.291900	
	0.297820	
	0.314266	
	0.326272	
	0.367387	
	0.411134	
	0.493693	
	0.550761	
	0.565727	
	0.578555	
	0.583982	
	0.592205	
	0.596646	
	0.605033	
	0.605362	
	0.606513	
	0.602073	
	0.599770	
	0.596152	
	0.589574	
	0.581844	
	0.579213	
	0.561780	
	0.549445	
	0.531684	
	0.489253	
	0.417712	
	0.334495	
	0.312128	
	0.291406	
	0.287624	
	0.281045	
	0.279565	
	0.265586	
	0.263284	
	0.256047	
	0.258843	
	0.263448	
	0.267724	
	0.280388	
	0.290420	
	0.303412	
	0.315089	
	0.338113	
	0.367881	0.029356
	0.452413	
	0.495667	
	0.544676	
	0.563096	
	0.577075	
	0.582173	
	0.585956	
	0.589080	
	0.600428	
	0.597468	
	0.603388	
	0.595988	
	0.595823	
	0.595494	
	0.589903	
	0.576581	
	0.577404	
	0.561451	
	0.544347	
	0.519678	
	0.470833	
	0.420508	
	0.347323	
	0.321009	
	0.298972	
	0.296669	
	0.288117	
	0.285815	
	0.275125	
	0.271671	
	0.264928	
	0.268382	
	0.267560	
	0.271178	
	0.277592	
	0.291078	
	0.297491	
	0.321667	
	0.339264	
	0.362289	
	0.425771	
	0.488759	
	0.548952	
	0.557010	
	0.577897	
	0.581515	
	0.591383	
	0.593356	
	0.594508	
	0.604704	
	0.606678	
	0.605033	
	0.603388	
	0.601086	
	0.592370	
	0.580035	
	0.575759	
	0.557997	
	0.545827	
	0.526092	
	0.486786	
	0.419192	
	0.338278	
	0.308839	
	0.289762	
	0.280716	
	0.275783	
	0.274796	
	0.267724	
	0.263777	
	0.261803	
	0.264764	
	0.271013	
	0.272658	
	0.282032	
	0.292393	
	0.294531	
	0.313609	
	0.341896	
	0.376433	
	0.428402	
	0.502738	
	0.539907	
	0.564247	
	0.578884	
	0.584147	
	0.589903	
	0.593356	
	0.603224	
	0.602402	
	0.609802	
	0.604046	
	0.603882	
	0.599441	
	0.595165	
	0.583324	
	0.580364	
	0.569510	
	0.550103	
	0.533493	0.028726
	0.495502	
	0.449618	
	0.355217	
	0.320680	
	0.299465	
	0.290091	
	0.280388	
	0.278250	
	0.269533	
	0.267889	
	0.269204	
	0.272329	
	0.275618	
	0.277592	
	0.280059	
	0.292722	
	0.292393	
	0.311142	
	0.331206	
	0.369032	
	0.429718	
	0.482674	
	0.538591	
	0.550432	
	0.569510	
	0.582009	
	0.593521	
	0.593192	
	0.601908	
	0.604540	
	0.607664	
	0.601579	
	0.600757	
	0.599277	
	0.594836	
	0.582831	
	0.578719	
	0.563753	
	0.557504	
	0.528065	
	0.464748	
	0.399128	
	0.332193	
	0.312951	
	0.295353	
	0.286308	
	0.274467	
	0.270520	
	0.266244	
	0.260323	
	0.259501	
	0.261146	
	0.265915	
	0.270027	
	0.278085	
	0.290913	
	0.295682	
	0.316569	
	0.342060	
	0.389261	
	0.470011	
	0.512113	
	0.545827	
	0.563096	
	0.575595	
	0.583982	
	0.584804	
	0.590889	
	0.603388	
	0.607007	
	0.607664	
	0.603553	
	0.599606	
	0.598784	
	0.592370	
	0.586942	
	0.584640	
	0.572963	
	0.559477	
	0.534808	
	0.515073	
	0.472149	
	0.354230	
	0.322654	
	0.303741	
	0.286144	
	0.278085	
	0.271013	
	0.260817	
	0.254238	
	0.251278	
	0.256705	
	0.263941	
	0.271507	
	0.282032	
	0.292558	
	0.300945	
	0.311142	
	0.337291	
	0.387780	0.031157
	0.490239	
	0.513099	
	0.545498	
	0.558162	
	0.577404	
	0.583653	
	0.582666	
	0.589574	
	0.598455	
	0.600922	
	0.609145	
	0.608980	
	0.603060	
	0.596810	
	0.593356	
	0.582666	
	0.574279	
	0.562931	
	0.539742	
	0.513757	
	0.465899	
	0.413930	
	0.345678	
	0.332686	
	0.295847	
	0.288446	
	0.278743	
	0.275454	
	0.265257	
	0.259666	
	0.260652	
	0.262626	
	0.268382	
	0.272165	
	0.278907	
	0.294860	
	0.300616	
	0.316076	
	0.331370	
	0.375939	
	0.447480	
	0.476589	
	0.531519	
	0.546156	
	0.569181	
	0.577239	
	0.585956	
	0.589409	
	0.600428	
	0.605526	
	0.608322	
	0.604375	
	0.602237	
	0.602895	
	0.595988	
	0.586778	
	0.580857	
	0.568358	
	0.560958	
	0.537769	
	0.505041	
	0.467873	
	0.356039	
	0.325285	
	0.297985	
	0.286144	
	0.279565	
	0.277098	
	0.269369	
	0.263119	
	0.259337	
	0.259994	
	0.264928	
	0.268382	
	0.278250	
	0.289597	
	0.296340	
	0.308510	
	0.325614	
	0.363276	
	0.406036	
	0.490239	
	0.553063	
	0.573950	
	0.591218	
	0.594508	
	0.596974	
	0.602731	
	0.609638	
	0.608322	
	0.612763	
	0.615723	
	0.615887	
	0.611940	
	0.607007	
	0.598126	
	0.587271	
	0.570990	
	0.554050	
	0.513264	0.028110
	0.413436	
	0.336962	
	0.315911	
	0.299958	
	0.282361	
	0.276441	
	0.267724	
	0.268217	
	0.262461	
	0.255718	
	0.254732	
	0.256870	
	0.261803	
	0.267889	
	0.271013	
	0.284335	
	0.292064	
	0.310813	
	0.326108	
	0.356697	
	0.407187	
	0.472642	
	0.534315	
	0.554050	
	0.570661	
	0.577733	
	0.585462	
	0.588916	
	0.597632	
	0.602566	
	0.606184	
	0.604046	
	0.600757	
	0.599770	
	0.593356	
	0.588094	
	0.580364	
	0.564411	
	0.546485	
	0.525598	
	0.479549	
	0.427251	
	0.352915	
	0.321503	
	0.299465	
	0.288775	
	0.278250	
	0.278578	
	0.268053	
	0.255718	
	0.255554	
	0.255718	
	0.262626	
	0.272987	
	0.274631	
	0.284992	
	0.288446	
	0.305715	
	0.322654	
	0.356204	
	0.400279	
	0.473464	
	0.526092	
	0.551090	
	0.568687	
	0.575923	
	0.587765	
	0.590067	
	0.597632	
	0.600264	
	0.604046	
	0.601415	
	0.600264	
	0.596810	
	0.590067	
	0.580693	
	0.570825	
	0.555530	
	0.544676	
	0.519020	
	0.470669	
	0.382353	
	0.339264	
	0.313115	
	0.292722	
	0.286802	
	0.277592	
	0.271671	
	0.269369	
	0.263613	
	0.261803	
	0.269698	
	0.270027	
	0.267724	
	0.275783	
	0.284499	
	0.295847	
	0.304234	
	0.322161	
	0.338113	0.032592
	0.395675	
	0.435145	
	0.516389	
	0.555695	
	0.575101	
	0.588916	
	0.599935	
	0.605033	
	0.609473	
	0.613585	
	0.610789	
	0.604540	
	0.603224	
	0.603224	
	0.601086	
	0.594014	
	0.590067	
	0.576417	
	0.563918	
	0.550268	
	0.532177	
	0.495831	
	0.400937	
	0.340416	
	0.304399	
	0.292229	
	0.282197	
	0.274138	
	0.275289	
	0.262790	
	0.262132	
	0.261146	
	0.268546	
	0.265093	
	0.262132	
	0.274796	
	0.282854	
	0.287788	
	0.313444	
	0.346172	
	0.398141	
	0.411134	
	0.484483	
	0.529710	
	0.560629	
	0.572799	
	0.582502	
	0.590560	
	0.595494	
	0.608487	
	0.608322	
	0.611940	
	0.613256	
	0.617697	
	0.616545	
	0.611776	
	0.604869	
	0.590725	
	0.582831	
	0.572470	
	0.558655	
	0.547801	
	0.510633	
	0.374459	
	0.305879	
	0.287624	
	0.274138	
	0.272987	
	0.262132	
	0.251114	
	0.247660	
	0.249304	
	0.252923	
	0.256541	
	0.262790	
	0.276769	
	0.284170	
	0.302425	
	0.319529	
	0.345514	
	0.415245	
	0.493364	
	0.525434	
	0.546156	
	0.569016	
	0.576088	
	0.586285	
	0.589574	
	0.597797	
	0.605362	
	0.604869	
	0.602895	
	0.597139	
	0.600264	
	0.597632	
	0.585956	
	0.572305	
	0.565398	
	0.545334	
	0.510961	0.030238
	0.439257	
	0.379557	
	0.343540	
	0.318214	
	0.298643	
	0.292229	
	0.288282	
	0.280552	
	0.271013	
	0.259994	
	0.264435	
	0.266244	
	0.272000	
	0.286966	
	0.301603	
	0.311471	
	0.321338	
	0.340251	
	0.362947	
	0.434816	
	0.483661	
	0.449289	
	0.503067	
	0.536288	
	0.553063	
	0.568523	
	0.576417	
	0.583160	
	0.591712	
	0.602895	
	0.601744	
	0.604046	
	0.605033	
	0.603224	
	0.602895	
	0.591218	
	0.580857	
	0.564247	
	0.545992	
	0.521651	
	0.465899	
	0.420837	
	0.350612	
	0.314924	
	0.294367	
	0.290091	
	0.284499	
	0.276934	
	0.270849	
	0.261475	
	0.260323	
	0.260323	
	0.265093	
	0.269533	
	0.271342	
	0.282032	
	0.291735	
	0.298149	
	0.316569	
	0.332686	
	0.376926	
	0.420837	
	0.508988	
	0.545498	
	0.571319	
	0.577404	
	0.591547	
	0.597303	
	0.600099	
	0.607664	
	0.609802	
	0.612927	
	0.604375	
	0.599770	
	0.600593	
	0.598126	
	0.594508	
	0.590067	
	0.580364	
	0.567372	
	0.540564	
	0.508330	
	0.466557	
	0.366236	
	0.323970	
	0.306866	
	0.294531	
	0.289926	
	0.282032	
	0.262626	
	0.261146	
	0.263777	
	0.266902	
	0.264270	
	0.259501	
	0.265751	
	0.275454	
	0.288446	
	0.309497	
	0.330713	0.030534
	0.367058	
	0.413107	
	0.515237	
	0.549774	
	0.574608	
	0.583653	
	0.584640	
	0.590560	
	0.591876	
	0.604375	
	0.605691	
	0.599935	
	0.599935	
	0.591547	
	0.587436	
	0.586778	
	0.590560	
	0.588751	
	0.571483	
	0.553063	
	0.525927	
	0.496653	
	0.404226	
	0.359493	
	0.326765	
	0.297656	
	0.284499	
	0.281539	
	0.274467	
	0.267066	
	0.265586	
	0.260817	
	0.262626	
	0.260488	
	0.259008	
	0.263119	
	0.272329	
	0.281374	
	0.314102	
	0.350283	
	0.421166	
	0.446493	
	0.483168	
	0.523625	
	0.554708	
	0.566385	
	0.576417	
	0.586449	
	0.592534	
	0.601579	
	0.605033	
	0.605033	
	0.602731	
	0.600099	
	0.597797	
	0.587436	
	0.574937	
	0.568687	
	0.543196	
	0.527736	
	0.506192	
	0.468202	
	0.398635	
	0.326601	
	0.301274	
	0.286144	
	0.280223	
	0.275783	
	0.271178	
	0.261968	
	0.262790	
	0.263448	
	0.268217	
	0.271507	
	0.273974	
	0.285650	
	0.295682	
	0.301110	
	0.314924	
	0.337784	
	0.409160	
	0.511290	
	0.550268	
	0.571976	
	0.578884	
	0.587600	
	0.589738	
	0.597139	
	0.598784	
	0.610460	
	0.608980	
	0.612434	
	0.610460	
	0.607993	
	0.603224	
	0.592534	
	0.578061	
	0.557339	
	0.537111	
	0.508824	0.035378
	0.450275	
	0.376104	
	0.371499	
	0.326437	
	0.302590	
	0.285157	
	0.274960	
	0.272658	
	0.269040	
	0.250291	
	0.253087	
	0.257034	
	0.269862	
	0.275783	
	0.279730	
	0.282361	
	0.285321	
	0.292558	
	0.305715	
	0.320845	
	0.362782	
	0.410640	
	0.505041	
	0.543196	
	0.569674	
	0.573785	
	0.580857	
	0.582831	
	0.589574	
	0.602402	
	0.604046	
	0.608651	
	0.606184	
	0.598455	
	0.596481	
	0.586778	
	0.580857	
	0.578555	
	0.567865	
	0.539742	
	0.507672	
	0.465241	
	0.414259	
	0.351106	
	0.324627	
	0.303905	
	0.291735	
	0.283348	
	0.280388	
	0.263613	
	0.275783	
	0.279236	
	0.278907	
	0.269698	
	0.269204	
	0.281210	
	0.292558	
	0.282690	
	0.298314	
	0.335811	
	0.408174	
	0.509810	
	0.533986	
	0.559642	
	0.578390	
	0.589903	
	0.586613	
	0.591547	
	0.593521	
	0.605691	
	0.601744	
	0.605033	
	0.599277	
	0.597139	
	0.595330	
	0.591218	
	0.582009	
	0.573950	
	0.557668	
	0.550925	
	0.526750	
	0.489911	
	0.413930	
	0.334002	
	0.308181	
	0.286966	
	0.283183	
	0.276441	
	0.279236	
	0.264106	
	0.269040	
	0.262626	
	0.264928	
	0.265093	
	0.269698	
	0.277427	
	0.291571	
	0.306208	
	0.328575	
	0.353408	0.027506
	0.382847	
	0.481194	
	0.523461	
	0.555859	
	0.567700	
	0.578226	
	0.579213	
	0.588916	
	0.597139	
	0.615559	
	0.611776	
	0.614901	
	0.607993	
	0.607829	
	0.597303	
	0.586778	
	0.577733	
	0.569510	
	0.551583	
	0.526421	
	0.487444	
	0.444684	
	0.384820	
	0.327588	
	0.309826	
	0.293873	
	0.285321	
	0.279072	
	0.277263	
	0.261968	
	0.263777	
	0.260159	
	0.263777	
	0.266244	
	0.270849	
	0.281374	
	0.298478	
	0.302425	
	0.326601	
	0.359987	
	0.428567	
	0.478892	
	0.505205	
	0.554215	
	0.570332	
	0.583489	
	0.590560	
	0.591876	
	0.591383	
	0.604046	
	0.601579	
	0.603882	
	0.603388	
	0.602402	
	0.598455	
	0.590067	
	0.580364	
	0.569016	
	0.548130	
	0.533986	
	0.497476	
	0.481687	
	0.436132	
	0.343212	
	0.308839	
	0.298314	
	0.288117	
	0.277427	
	0.280716	
	0.265422	
	0.267395	
	0.256376	
	0.257528	
	0.255061	
	0.265093	
	0.275454	
	0.287295	
	0.297327	
	0.316076	
	0.334660	
	0.360644	
	0.416068	
	0.496489	
	0.544347	
	0.564082	
	0.575759	
	0.587600	
	0.594179	
	0.598948	
	0.610625	
	0.611118	
	0.616710	
	0.608816	
	0.609638	
	0.604704	
	0.595988	
	0.590396	
	0.588258	
	0.570825	
	0.563096	0.032814
	0.554379	
	0.542209	
	0.514086	
	0.385313	
	0.333179	
	0.309990	
	0.291900	
	0.278907	
	0.276276	
	0.255883	
	0.250620	
	0.246344	
	0.252758	
	0.264270	
	0.279730	
	0.295847	
	0.304563	
	0.301439	
	0.315911	
	0.327917	
	0.371663	
	0.519185	
	0.549610	
	0.576746	
	0.587600	
	0.598290	
	0.598784	
	0.598290	
	0.590889	
	0.597797	
	0.595494	
	0.601415	
	0.598455	
	0.603553	
	0.595823	
	0.593685	
	0.587436	
	0.585956	
	0.564905	
	0.553228	
	0.528888	
	0.502081	
	0.443039	
	0.334824	
	0.322325	
	0.307359	
	0.291571	
	0.272165	
	0.262955	
	0.251936	
	0.248647	
	0.242397	
	0.244700	
	0.251442	
	0.262297	
	0.272987	
	0.279401	
	0.278907	
	0.298314	
	0.314760	
	0.351270	
	0.457676	
	0.537275	
	0.565891	
	0.583489	
	0.589574	
	0.600757	
	0.607829	
	0.601250	
	0.612434	
	0.613914	
	0.619834	
	0.612269	
	0.605033	
	0.598948	
	0.595659	
	0.583982	
	0.563918	
	0.531519	
	0.497805	
	0.405213	
	0.368867	
	0.349790	
	0.312951	
	0.301274	
	0.281868	
	0.277427	
	0.269698	
	0.268875	
	0.253580	
	0.256541	
	0.253745	
	0.259337	
	0.262297	
	0.267889	
	0.276441	
	0.278907	
	0.287953	
	0.310319	
	0.330713	0.031058
	0.358506	
	0.394359	
	0.432349	
	0.531519	
	0.553228	
	0.569016	
	0.581186	
	0.589738	
	0.593356	
	0.609145	
	0.606349	
	0.611283	
	0.607993	
	0.611776	
	0.607664	
	0.595823	
	0.584804	
	0.579871	
	0.561615	
	0.542373	
	0.509975	
	0.476754	
	0.398635	
	0.330055	
	0.303412	
	0.301110	
	0.295518	
	0.289104	
	0.278578	
	0.264270	
	0.262626	
	0.260652	
	0.266079	
	0.267395	
	0.276441	
	0.284335	
	0.295518	
	0.304892	
	0.319858	
	0.339758	
	0.384656	
	0.441724	
	0.500929	
	0.543689	
	0.560300	
	0.570332	
	0.582009	
	0.592863	
	0.597797	
	0.609967	
	0.609967	
	0.612105	
	0.608322	
	0.602566	
	0.596481	
	0.587600	
	0.570825	
	0.569510	
	0.554379	
	0.542045	
	0.478727	
	0.437119	
	0.377913	
	0.323312	
	0.304399	
	0.282032	
	0.278085	
	0.267395	
	0.271507	
	0.262132	
	0.269040	
	0.261968	
	0.271342	
	0.270027	
	0.271342	
	0.279072	
	0.297820	
	0.312457	
	0.342225	
	0.381202	
	0.488430	
	0.529546	
	0.536617	
	0.545498	
	0.564576	
	0.571154	
	0.582995	
	0.597632	
	0.594672	
	0.608816	
	0.610789	
	0.620328	
	0.610789	
	0.604869	
	0.599935	
	0.587600	
	0.571154	
	0.561122	
	0.539249	
	0.526421	0.028792
	0.486292	
	0.391070	
	0.368210	
	0.320845	
	0.300781	
	0.284992	
	0.277921	
	0.269533	
	0.266408	
	0.254567	
	0.260488	
	0.259501	
	0.268382	
	0.276769	
	0.282361	
	0.286966	
	0.307195	
	0.316240	
	0.345514	
	0.403898	
	0.474616	
	0.486621	
	0.506686	
	0.552406	
	0.570003	
	0.590067	
	0.596810	
	0.601744	
	0.599277	
	0.614736	
	0.616545	
	0.620328	
	0.622301	
	0.624439	
	0.621644	
	0.616381	
	0.599935	
	0.584311	
	0.561615	
	0.531355	
	0.475438	
	0.421495	
	0.379722	
	0.319200	
	0.300287	
	0.288446	
	0.282197	
	0.271178	
	0.266737	
	0.247989	
	0.252923	
	0.251607	
	0.257199	
	0.261310	
	0.266737	
	0.272987	
	0.281703	
	0.286966	
	0.293873	
	0.298972	
	0.317556	
	0.339264	
	0.393043	
	0.533986	
	0.558491	
	0.576088	
	0.592041	
	0.604704	
	0.602073	
	0.617039	
	0.617861	
	0.621150	
	0.614901	
	0.612927	
	0.606513	
	0.595165	
	0.588422	
	0.585791	
	0.571648	
	0.555201	
	0.525270	
	0.482345	
	0.384656	
	0.324299	
	0.305715	
	0.282690	
	0.269862	
	0.265915	
	0.264435	
	0.249962	
	0.251114	
	0.249798	
	0.254567	
	0.256212	
	0.259830	
	0.270849	
	0.296176	
	0.305057	
	0.327917	
	0.340416	0.031771
	0.385807	
	0.443368	
	0.502410	
	0.548130	
	0.557668	
	0.566549	
	0.574608	
	0.585133	
	0.586285	
	0.599770	
	0.595165	
	0.601415	
	0.599441	
	0.599770	
	0.598619	
	0.587271	
	0.578061	
	0.573950	
	0.549281	
	0.531355	
	0.488595	
	0.434487	
	0.375446	
	0.325285	
	0.315747	
	0.298314	
	0.296505	
	0.285157	
	0.286637	
	0.273316	
	0.282197	
	0.280059	
	0.290584	
	0.289762	
	0.286637	
	0.297327	
	0.315747	
	0.302261	
	0.305879	
	0.312293	
	0.345843	
	0.392714	
	0.508988	
	0.555859	
	0.568358	
	0.574443	
	0.580857	
	0.588587	
	0.589903	
	0.601086	
	0.604540	
	0.610954	
	0.601744	
	0.597468	
	0.596810	
	0.595494	
	0.584147	
	0.589080	
	0.574279	
	0.551583	
	0.536946	
	0.536453	
	0.506521	
	0.368867	
	0.324792	
	0.290584	
	0.277427	
	0.270027	
	0.264764	
	0.254074	
	0.258843	
	0.253909	
	0.255225	
	0.258514	
	0.267560	
	0.274960	
	0.289268	
	0.289104	
	0.309990	
	0.325943	
	0.367223	
	0.445013	
	0.505699	
	0.552077	
	0.565234	
	0.574772	
	0.580199	
	0.587436	
	0.596810	
	0.610789	
	0.609145	
	0.610131	
	0.606349	
	0.602731	
	0.595988	
	0.589245	
	0.575430	
	0.567865	
	0.550103	
	0.536124	0.035727
	0.511455	
	0.442217	
	0.386465	
	0.331699	
	0.313773	
	0.290255	
	0.286144	
	0.272822	
	0.268875	
	0.250620	
	0.251936	
	0.252265	
	0.258679	
	0.269040	
	0.276605	
	0.290420	
	0.305057	
	0.320680	
	0.347159	
	0.401266	
	0.511126	
	0.524776	
	0.533328	
	0.552735	
	0.558162	
	0.579706	
	0.583982	
	0.594836	
	0.607993	
	0.625426	
	0.624768	
	0.635623	
	0.632005	
	0.625920	
	0.629373	
	0.622795	
	0.609802	
	0.590067	
	0.572305	
	0.563753	
	0.543196	
	0.486292	
	0.418863	
	0.327094	
	0.286144	
	0.259172	
	0.263613	
	0.256705	
	0.250456	
	0.238286	
	0.244042	
	0.243548	
	0.253580	
	0.262297	
	0.272000	
	0.279401	
	0.289597	
	0.293051	
	0.316240	
	0.332357	
	0.356204	
	0.410640	
	0.485963	
	0.551419	
	0.568194	
	0.581186	
	0.585627	
	0.592534	
	0.598290	
	0.609802	
	0.606020	
	0.614407	
	0.603388	
	0.596481	
	0.594836	
	0.591218	
	0.582173	
	0.593850	
	0.587271	
	0.578884	
	0.558162	
	0.558655	
	0.546978	
	0.340416	
	0.306701	
	0.297491	
	0.306537	
	0.301932	
	0.289268	
	0.260981	
	0.249962	
	0.243877	
	0.247824	
	0.254403	
	0.257856	
	0.259337	
	0.265751	
	0.266079	
	0.283677	
	0.297820	0.035381
	0.319529	
	0.346994	
	0.374952	
	0.511126	
	0.550597	
	0.576581	
	0.586613	
	0.596317	
	0.599606	
	0.606184	
	0.600593	
	0.602402	
	0.597797	
	0.595823	
	0.594179	
	0.589245	
	0.583324	
	0.581844	
	0.563918	
	0.546156	
	0.521487	
	0.475602	
	0.421659	
	0.339593	
	0.318049	
	0.300945	
	0.290255	
	0.282361	
	0.272000	
	0.257692	
	0.260323	
	0.262955	
	0.262461	
	0.260488	
	0.261968	
	0.266737	
	0.277427	
	0.283677	
	0.299136	
	0.318214	
	0.374788	
	0.454387	
	0.508330	
	0.557833	
	0.574772	
	0.584311	
	0.591876	
	0.596974	
	0.596481	
	0.609145	
	0.607664	
	0.612269	
	0.609638	
	0.607829	
	0.606184	
	0.598948	
	0.590396	
	0.583324	
	0.563424	
	0.554050	
	0.519678	
	0.500436	
	0.470669	
	0.363605	
	0.342718	
	0.299465	
	0.294202	
	0.291242	
	0.286144	
	0.276769	
	0.269040	
	0.260817	
	0.264599	
	0.266902	
	0.273316	
	0.277098	
	0.282361	
	0.288282	
	0.296176	
	0.318214	
	0.363605	
	0.476754	
	0.524941	
	0.556517	
	0.568687	
	0.587436	
	0.592041	
	0.601086	
	0.598619	
	0.604375	
	0.603717	
	0.606678	
	0.601250	
	0.596481	
	0.595001	
	0.588916	
	0.579542	
	0.577733	
	0.563918	
	0.546321	0.043319
	0.514909	
	0.438599	
	0.377584	
	0.323476	
	0.296998	
	0.282032	
	0.278085	
	0.275947	
	0.277263	
	0.265751	
	0.267889	
	0.264435	
	0.260323	
	0.260981	
	0.277427	
	0.313280	
	0.428402	
	0.536453	
	0.569510	
	0.575759	
	0.572963	
	0.574114	
	0.571812	
	0.582995	
	0.592698	
	0.600922	
	0.595494	
	0.597797	
	0.597303	
	0.598948	
	0.601908	
	0.605526	
	0.597468	
	0.598290	
	0.599112	
	0.579377	
	0.541222	
	0.540729	
	0.533986	
	0.522309	
	0.457183	
	0.364920	
	0.342718	
	0.305386	
	0.287788	
	0.277427	
	0.276112	
	0.270520	
	0.264270	
	0.251278	
	0.242562	
	0.242891	
	0.245522	
	0.249962	
	0.252594	
	0.258679	
	0.272822	
	0.284006	
	0.301932	
	0.318542	
	0.355875	
	0.402582	
	0.461459	
	0.530039	
	0.547636	
	0.566220	
	0.570003	
	0.580199	
	0.585133	
	0.601908	
	0.613421	
	0.622795	
	0.620821	
	0.618354	
	0.617368	
	0.612927	
	0.607664	
	0.607007	
	0.602073	
	0.595165	
	0.553392	
	0.465406	
	0.405871	
	0.358177	
	0.318049	
	0.284499	
	0.280881	
	0.289762	
	0.294038	
	0.270191	
	0.258350	
	0.258679	
	0.271836	
	0.277263	
	0.280716	
	0.285157	
	0.290255	
	0.289268	
	0.306372	
	0.320516	0.041472
	0.343869	
	0.371992	
	0.399128	
	0.520500	
	0.545169	
	0.565234	
	0.570990	
	0.580693	
	0.585298	
	0.593192	
	0.595988	
	0.605362	
	0.597632	
	0.600099	
	0.595988	
	0.590889	
	0.576252	
	0.574443	
	0.553886	
	0.543031	
	0.527408	
	0.508495	
	0.483168	
	0.353079	
	0.321503	
	0.292558	
	0.286637	
	0.276605	
	0.273645	
	0.257692	
	0.254238	
	0.254896	
	0.260488	
	0.262790	
	0.269698	
	0.279565	
	0.297163	
	0.302425	
	0.318378	
	0.334495	
	0.352421	
	0.383669	
	0.461952	
	0.531355	
	0.555201	
	0.576910	
	0.582337	
	0.584475	
	0.591876	
	0.600428	
	0.606842	
	0.612927	
	0.607993	
	0.604540	
	0.607993	
	0.605526	
	0.598290	
	0.593356	
	0.580364	
	0.557175	
	0.535466	
	0.498134	
	0.451098	
	0.363769	
	0.339100	
	0.304728	
	0.300945	
	0.287624	
	0.275289	
	0.263777	
	0.258021	
	0.266079	
	0.281703	
	0.291571	
	0.303905	
	0.323641	
	0.368045	
	0.437612	
	0.458170	
	0.501094	
	0.489253	
	0.477740	
	0.507672	
	0.533328	
	0.541880	
	0.567536	
	0.566878	
	0.569674	
	0.569181	
	0.577568	
	0.579871	
	0.591876	
	0.598619	
	0.598948	
	0.598290	
	0.589903	
	0.577897	
	0.573457	
	0.554379	
	0.542045	0.039401
	0.519678	
	0.503890	
	0.478892	
	0.368045	
	0.331041	
	0.298149	
	0.284499	
	0.276605	
	0.271671	
	0.264928	
	0.265093	
	0.269369	
	0.270849	
	0.277921	
	0.271671	
	0.271342	
	0.290255	
	0.299465	
	0.323970	
	0.376762	
	0.446986	
	0.498627	
	0.515237	
	0.556188	
	0.570990	
	0.590889	
	0.593685	
	0.593356	
	0.600757	
	0.611447	
	0.618683	
	0.618519	
	0.609309	
	0.599441	
	0.590725	
	0.581351	
	0.565069	
	0.562273	
	0.554050	
	0.543525	
	0.548787	
	0.520007	
	0.432020	
	0.358835	
	0.325943	
	0.296011	
	0.295682	
	0.287130	
	0.280716	
	0.279236	
	0.268217	
	0.265257	
	0.266408	
	0.267889	
	0.261803	
	0.266902	
	0.279730	
	0.295682	
	0.345514	
	0.367552	
	0.379722	
	0.431034	
	0.533164	
	0.543031	
	0.549445	
	0.572963	
	0.590396	
	0.599441	
	0.601250	
	0.616052	
	0.625426	
	0.625262	
	0.623453	
	0.619177	
	0.613585	
	0.616052	
	0.600757	
	0.588258	
	0.568523	
	0.546649	
	0.512935	
	0.419192	
	0.363111	
	0.334660	
	0.309168	
	0.281374	
	0.274303	
	0.271836	
	0.281045	
	0.266408	
	0.256541	
	0.262132	
	0.263941	
	0.268711	
	0.278578	
	0.291242	
	0.300781	
	0.305386	
	0.315089	
	0.322983	0.035962
	0.341402	
	0.361631	
	0.397813	
	0.498956	
	0.542209	
	0.558984	
	0.570332	
	0.576910	
	0.582666	
	0.593356	
	0.601744	
	0.604704	
	0.599770	
	0.597303	
	0.594508	
	0.592041	
	0.581186	
	0.569181	
	0.557175	
	0.544018	
	0.515731	
	0.457183	
	0.367387	
	0.329397	
	0.312293	
	0.296669	
	0.302261	
	0.295025	
	0.293380	
	0.285650	
	0.276769	
	0.277756	
	0.276605	
	0.282361	
	0.282361	
	0.289597	
	0.306372	
	0.325285	
	0.327752	
	0.361138	
	0.377255	
	0.407022	
	0.469188	
	0.526585	
	0.553721	
	0.575101	
	0.575430	
	0.587436	
	0.595823	
	0.606678	
	0.609309	
	0.615230	
	0.613421	
	0.607007	
	0.598455	
	0.590725	
	0.582173	
	0.578226	
	0.559971	
	0.552077	
	0.540564	
	0.511290	
	0.459321	
	0.324792	
	0.292229	
	0.275289	
	0.273645	
	0.272165	
	0.273645	
	0.270849	
	0.260652	
	0.258514	
	0.259994	
	0.261803	
	0.265586	
	0.270355	
	0.283348	
	0.299136	
	0.313115	
	0.339758	
	0.385149	
	0.464419	
	0.489582	
	0.528888	
	0.541551	
	0.569510	
	0.581186	
	0.579377	
	0.588587	
	0.597632	
	0.607500	
	0.611118	
	0.610460	
	0.614901	
	0.622301	
	0.624933	
	0.626084	
	0.620492	
	0.611118	
	0.590396	0.048589
	0.544840	
	0.448137	
	0.375775	
	0.346007	
	0.313773	
	0.289597	
	0.287459	
	0.286308	
	0.286144	
	0.277921	
	0.263119	
	0.257528	
	0.260323	
	0.261803	
	0.261968	
	0.270684	
	0.274467	
	0.276441	
	0.280881	
	0.298149	
	0.333344	
	0.385149	
	0.405213	
	0.470833	
	0.532341	
	0.560464	
	0.581351	
	0.589245	
	0.593356	
	0.599441	
	0.605855	
	0.611118	
	0.615559	
	0.607664	
	0.602237	
	0.596810	
	0.598948	
	0.599770	
	0.595494	
	0.579213	
	0.543360	
	0.476096	
	0.425442	
	0.404391	
	0.361796	
	0.324134	
	0.301439	
	0.295025	
	0.285321	
	0.287459	
	0.289104	
	0.303412	
	0.313444	
	0.330384	
	0.328246	
	0.334166	
	0.383504	
	0.484648	
	0.481359	
	0.501587	
	0.505699	
	0.517540	
	0.496653	
	0.488266	
	0.486292	
	0.455538	
	0.371499	
	0.359822	
	0.444519	
	0.524941	
	0.569181	
	0.581351	
	0.587600	
	0.588422	
	0.582831	
	0.575595	
	0.574279	
	0.576417	
	0.569674	
	0.551912	
	0.524283	
	0.484977	
	0.372486	
	0.325779	
	0.301274	
	0.283348	
	0.280388	
	0.275289	
	0.273809	
	0.272987	
	0.262461	
	0.263613	
	0.262626	
	0.267231	
	0.268711	
	0.279894	
	0.285650	
	0.294202	
	0.309826	
	0.341074	0.044106
	0.413272	
	0.500600	
	0.536782	
	0.572963	
	0.576088	
	0.579377	
	0.580035	
	0.575266	
	0.572799	
	0.574443	
	0.590889	
	0.595823	
	0.600757	
	0.593356	
	0.588751	
	0.578884	
	0.578555	
	0.576252	
	0.574443	
	0.567372	
	0.556024	
	0.532670	
	0.479056	
	0.365249	
	0.324956	
	0.300123	
	0.291242	
	0.286637	
	0.276276	
	0.276112	
	0.262790	
	0.262297	
	0.261803	
	0.264106	
	0.270355	
	0.274138	
	0.285486	
	0.299465	
	0.309990	
	0.325614	
	0.364756	
	0.440572	
	0.515731	
	0.553557	
	0.570825	
	0.582831	
	0.593521	
	0.594836	
	0.592863	
	0.604869	
	0.612434	
	0.610625	
	0.609802	
	0.608487	
	0.602073	
	0.590889	
	0.582173	
	0.587600	
	0.586613	
	0.569510	
	0.543854	
	0.514251	
	0.439092	
	0.344527	
	0.305879	
	0.286308	
	0.279072	
	0.277756	
	0.267724	
	0.268546	
	0.257528	
	0.259008	
	0.257199	
	0.263448	
	0.265586	
	0.267724	
	0.274796	
	0.282690	
	0.292229	
	0.316569	
	0.345678	
	0.415903	
	0.489582	
	0.519349	
	0.544347	
	0.544676	
	0.573621	
	0.587107	
	0.596481	
	0.603224	
	0.615723	
	0.622959	
	0.619670	
	0.617697	
	0.615559	
	0.613092	
	0.604211	
	0.612598	
	0.610460	
	0.597139	0.043438
	0.576252	
	0.540729	
	0.429389	
	0.322654	
	0.298643	
	0.298149	
	0.293544	
	0.301274	
	0.314266	
	0.297656	
	0.274796	
	0.281045	
	0.318871	
	0.359000	
	0.331041	
	0.315747	
	0.338771	
	0.327588	
	0.320680	
	0.307688	
	0.301439	
	0.297327	
	0.287624	
	0.312293	
	0.382518	
	0.539413	
	0.576910	
	0.576417	
	0.566878	
	0.559477	
	0.576746	
	0.586120	
	0.587929	
	0.583982	
	0.589738	
	0.595494	
	0.592041	
	0.579213	
	0.569181	
	0.544183	
	0.517375	
	0.469682	
	0.409489	
	0.366894	
	0.339264	
	0.321174	
	0.310155	
	0.315582	
	0.311306	
	0.315089	
	0.289926	
	0.268546	
	0.262297	
	0.271342	
	0.295518	
	0.333673	
	0.394194	
	0.453565	
	0.489746	
	0.497476	
	0.460143	
	0.457183	
	0.507508	
	0.527901	
	0.554215	
	0.575101	
	0.582831	
	0.585627	
	0.578390	
	0.574937	
	0.582666	
	0.577568	
	0.574443	
	0.566878	
	0.568194	
	0.566878	
	0.569510	
	0.558326	
	0.547472	
	0.531190	
	0.514909	
	0.454223	
	0.398964	
	0.349297	
	0.319694	
	0.293709	
	0.285486	
	0.275783	
	0.268875	
	0.265915	
	0.246838	
	0.250127	
	0.246015	
	0.249304	
	0.259666	
	0.274467	
	0.285815	
	0.293380	
	0.292229	
	0.307524	0.047147
	0.324627	
	0.367881	
	0.399951	
	0.488759	
	0.539249	
	0.564247	
	0.579706	
	0.590067	
	0.600099	
	0.607007	
	0.614572	
	0.612927	
	0.612434	
	0.604046	
	0.603717	
	0.592370	
	0.584475	
	0.573785	
	0.579706	
	0.560958	
	0.546978	
	0.518198	
	0.491391	
	0.417548	
	0.339922	
	0.321009	
	0.303412	
	0.289926	
	0.275618	
	0.267066	
	0.257528	
	0.262955	
	0.264270	
	0.267066	
	0.270849	
	0.277427	
	0.289104	
	0.305550	
	0.310648	
	0.332357	
	0.367223	
	0.466557	
	0.516060	
	0.534644	
	0.551254	
	0.562438	
	0.564411	
	0.575430	
	0.583489	
	0.594179	
	0.612269	
	0.612598	
	0.613092	
	0.607829	
	0.607829	
	0.606020	
	0.599277	
	0.589245	
	0.580035	
	0.566549	
	0.553392	
	0.513264	
	0.468202	
	0.384491	
	0.310319	
	0.285486	
	0.275783	
	0.265586	
	0.257856	
	0.254238	
	0.250949	
	0.258514	
	0.257034	
	0.267889	
	0.274960	
	0.279894	
	0.292393	
	0.298972	
	0.313609	
	0.339922	
	0.380544	
	0.476589	
	0.541387	
	0.543031	
	0.571154	
	0.593192	
	0.603882	
	0.611776	
	0.618354	
	0.620163	
	0.623617	
	0.620821	
	0.620986	
	0.607007	
	0.600757	
	0.597303	
	0.583160	
	0.573457	
	0.564082	
	0.553392	0.037549
	0.527079	
	0.413601	
	0.331206	
	0.295682	
	0.273645	
	0.268382	
	0.266902	
	0.270191	
	0.263119	
	0.263284	
	0.251114	
	0.262297	
	0.262790	
	0.278907	
	0.299301	
	0.316733	
	0.342883	
	0.374459	
	0.364920	
	0.406036	
	0.418535	
	0.464584	
	0.527408	
	0.563589	
	0.590232	
	0.601086	
	0.612763	
	0.620492	
	0.617203	
	0.613749	
	0.624439	
	0.626413	
	0.632991	
	0.636774	
	0.637925	
	0.644668	
	0.638090	
	0.625097	
	0.612434	
	0.598455	
	0.580035	
	0.534973	
	0.373143	
	0.326930	
	0.291406	
	0.283183	
	0.277756	
	0.259830	
	0.243548	
	0.233023	
	0.211643	
	0.208683	
	0.210163	
	0.219702	
	0.229076	
	0.234667	
	0.246180	
	0.251114	
	0.261803	
	0.283512	
	0.300452	
	0.341567	
	0.360973	
	0.405049	
	0.526585	
	0.553886	
	0.571483	
	0.580035	
	0.586613	
	0.589409	
	0.602731	
	0.597961	
	0.606513	
	0.600593	
	0.602731	
	0.598455	
	0.591876	
	0.579871	
	0.576252	
	0.549445	
	0.525763	
	0.455538	
	0.389425	
	0.356533	
	0.315089	
	0.297985	
	0.287624	
	0.279401	
	0.275289	
	0.273480	
	0.260159	
	0.264270	
	0.259337	
	0.267395	
	0.266737	
	0.271342	
	0.282690	
	0.294038	
	0.304070	
	0.336962	0.035167
	0.347159	
	0.382847	
	0.486786	
	0.526092	
	0.564411	
	0.583489	
	0.581680	
	0.584640	
	0.591383	
	0.591054	
	0.601415	
	0.600757	
	0.607500	
	0.604540	
	0.609145	
	0.606184	
	0.595659	
	0.584311	
	0.570825	
	0.551254	
	0.528065	
	0.481359	
	0.381531	
	0.354559	
	0.312622	
	0.302754	
	0.295025	
	0.282690	
	0.271342	
	0.271836	
	0.259008	
	0.268875	
	0.266079	
	0.269862	
	0.274303	
	0.277263	
	0.287459	
	0.301274	
	0.306537	
	0.328246	
	0.338607	
	0.395181	
	0.452249	
	0.520665	
	0.566385	
	0.582995	
	0.586778	
	0.591876	
	0.597139	
	0.605691	
	0.619999	
	0.617039	
	0.613421	
	0.604704	
	0.599112	
	0.595988	
	0.592534	
	0.586613	
	0.581680	
	0.558162	
	0.526092	
	0.480536	
	0.439586	
	0.411792	
	0.327094	
	0.297327	
	0.279894	
	0.266902	
	0.259830	
	0.250291	
	0.241410	
	0.251607	
	0.252265	
	0.264270	
	0.271507	
	0.272987	
	0.289104	
	0.301603	
	0.314102	
	0.352750	
	0.400937	
	0.529052	
	0.548459	
	0.560464	
	0.589409	
	0.605197	
	0.619670	
	0.622630	
	0.617039	
	0.608487	
	0.614243	
	0.613585	
	0.620657	
	0.622301	
	0.619670	
	0.612598	
	0.601744	
	0.589574	
	0.580528	
	0.557010	0.039047
	0.521980	
	0.499614	
	0.417219	
	0.358013	
	0.298643	
	0.275125	
	0.260488	
	0.258185	
	0.253580	
	0.250785	
	0.242562	
	0.244371	
	0.248318	
	0.264106	
	0.261475	
	0.271836	
	0.275783	
	0.284992	
	0.292064	
	0.301603	
	0.335975	
	0.367223	
	0.428073	
	0.474945	
	0.547636	
	0.586120	
	0.604540	
	0.609802	
	0.618190	
	0.618519	
	0.630524	
	0.623124	
	0.619506	
	0.615065	
	0.611118	
	0.595494	
	0.591876	
	0.577568	
	0.567372	
	0.573457	
	0.563589	
	0.506357	
	0.344856	
	0.297163	
	0.270684	
	0.264270	
	0.261310	
	0.261310	
	0.258514	
	0.255061	
	0.246838	
	0.254074	
	0.245357	
	0.242891	
	0.243877	
	0.249469	
	0.258514	
	0.275783	
	0.284828	
	0.314102	
	0.341731	
	0.408502	
	0.528559	
	0.555695	
	0.587271	
	0.596810	
	0.601744	
	0.606184	
	0.612269	
	0.613585	
	0.622959	
	0.622301	
	0.627893	
	0.627729	
	0.623782	
	0.614243	
	0.606842	
	0.596646	
	0.589903	
	0.556353	
	0.513428	
	0.382682	
	0.334331	
	0.327917	
	0.299301	
	0.281045	
	0.274467	
	0.262297	
	0.259666	
	0.262132	
	0.246673	
	0.246180	
	0.244535	
	0.252265	
	0.255061	
	0.259172	
	0.270027	
	0.286966	
	0.290584	
	0.304070	0.041887
	0.319036	
	0.334824	
	0.389261	
	0.462446	
	0.541387	
	0.555859	
	0.578061	
	0.582337	
	0.594014	
	0.597632	
	0.612269	
	0.608651	
	0.612763	
	0.609967	
	0.608816	
	0.603060	
	0.595494	
	0.590560	
	0.590232	
	0.578390	
	0.557668	
	0.517047	
	0.457841	
	0.379393	
	0.326108	
	0.318542	
	0.311142	
	0.306208	
	0.283348	
	0.278907	
	0.265257	
	0.262297	
	0.262626	
	0.275454	
	0.284828	
	0.293215	
	0.313609	
	0.320516	
	0.314102	
	0.328575	
	0.413436	
	0.521323	
	0.556846	
	0.578884	
	0.591383	
	0.586778	
	0.586285	
	0.572634	
	0.577075	
	0.577075	
	0.589409	
	0.592041	
	0.604211	
	0.606349	
	0.606678	
	0.604540	
	0.601086	
	0.601250	
	0.595330	
	0.563589	
	0.554708	
	0.538262	
	0.499614	
	0.454058	
	0.338442	
	0.309826	
	0.282526	
	0.277427	
	0.271342	
	0.264270	
	0.249633	
	0.257363	
	0.257199	
	0.261310	
	0.260817	
	0.260488	
	0.257034	
	0.258021	
	0.259501	
	0.282526	
	0.307195	
	0.382353	
	0.534973	
	0.548459	
	0.559148	
	0.570661	
	0.581680	
	0.597139	
	0.594343	
	0.586613	
	0.591383	
	0.585956	
	0.602073	
	0.603388	
	0.603224	
	0.591054	
	0.585956	
	0.575759	
	0.575430	
	0.565069	0.030255
	0.560300	
	0.536288	
	0.507837	
	0.506192	
	0.410312	
	0.391399	
	0.319036	
	0.287624	
	0.279072	
	0.285815	
	0.267724	
	0.262132	
	0.264435	
	0.272493	
	0.274796	
	0.270027	
	0.279565	
	0.299794	
	0.304399	
	0.311635	
	0.318214	
	0.391892	
	0.526585	
	0.545334	
	0.572963	
	0.589080	
	0.599606	
	0.606349	
	0.613092	
	0.612269	
	0.614901	
	0.603060	
	0.609638	
	0.604704	
	0.601086	
	0.594836	
	0.581844	
	0.571976	
	0.581351	
	0.568852	
	0.561615	
	0.500929	
	0.451756	
	0.458827	
	0.352586	
	0.349954	
	0.317062	
	0.319529	
	0.332851	
	0.304892	
	0.266573	
	0.265915	
	0.258350	
	0.269698	
	0.284170	
	0.294696	
	0.307853	
	0.335811	
	0.354559	
	0.393372	
	0.423633	
	0.440408	
	0.464912	
	0.489088	
	0.536782	
	0.552241	
	0.561615	
	0.560793	
	0.571319	
	0.578719	
	0.602237	
	0.601250	
	0.602731	
	0.597961	
	0.596974	
	0.598948	
	0.598455	
	0.591054	
	0.589080	
	0.577075	
	0.566549	
	0.527572	
	0.467544	
	0.381860	
	0.327423	
	0.305057	
	0.279894	
	0.259830	
	0.240753	
	0.239437	
	0.234174	
	0.234339	
	0.229076	
	0.234667	
	0.237957	
	0.242891	
	0.254896	
	0.264270	
	0.269369	
	0.290420	0.039787
	0.321174	
	0.429718	
	0.530039	
	0.553721	
	0.570825	
	0.571976	
	0.579542	
	0.574772	
	0.587600	
	0.592041	
	0.607664	
	0.607171	
	0.611118	
	0.608322	
	0.602895	
	0.596317	
	0.586613	
	0.576417	
	0.580693	
	0.570332	
	0.546978	
	0.485306	
	0.399457	
	0.361960	
	0.300781	
	0.281539	
	0.272658	
	0.268382	
	0.265751	
	0.262132	
	0.255718	
	0.255883	
	0.249304	
	0.253580	
	0.252429	
	0.254403	
	0.263613	
	0.276276	
	0.280552	
	0.294202	
	0.305879	
	0.333673	
	0.378900	
	0.487937	
	0.553063	
	0.573128	
	0.590067	
	0.596646	
	0.602402	
	0.599277	
	0.601086	
	0.592205	
	0.592534	
	0.593192	
	0.590889	
	0.589080	
	0.589574	
	0.577897	
	0.574114	
	0.569838	
	0.556517	
	0.543854	
	0.536617	
	0.531355	
	0.465899	
	0.449289	
	0.356533	
	0.318871	
	0.294202	
	0.288775	
	0.277921	
	0.282361	
	0.280388	
	0.284006	
	0.289104	
	0.301439	
	0.301110	
	0.301110	
	0.306701	
	0.368210	
	0.478069	
	0.541551	
	0.571154	
	0.586449	
	0.596317	
	0.593850	
	0.604375	
	0.604869	
	0.601086	
	0.596646	
	0.604704	
	0.609309	
	0.604704	
	0.595823	
	0.587929	
	0.587765	
	0.586449	
	0.586613	
	0.581022	
	0.570990	0.054632
	0.555201	
	0.530861	
	0.487444	
	0.483003	
	0.331370	
	0.303905	
	0.285321	
	0.291900	
	0.293215	
	0.275783	
	0.254732	
	0.249798	
	0.244700	
	0.251114	
	0.250291	
	0.242891	
	0.241575	
	0.242068	
	0.253745	
	0.279401	
	0.294531	
	0.312457	
	0.323476	
	0.367223	
	0.517211	
	0.548130	
	0.561122	
	0.566056	
	0.583160	
	0.600099	
	0.620821	
	0.624768	
	0.627071	
	0.618190	
	0.612434	
	0.601744	
	0.593192	
	0.577075	
	0.568029	
	0.553886	
	0.550268	
	0.528394	
	0.449289	
	0.364263	
	0.324463	
	0.310155	
	0.305550	
	0.314595	
	0.311142	
	0.314924	
	0.313444	
	0.331370	
	0.324627	
	0.333508	
	0.351106	
	0.339100	
	0.325450	
	0.315747	
	0.369690	
	0.498627	
	0.417877	
	0.378900	
	0.358835	
	0.317556	
	0.325779	
	0.347652	
	0.495009	
	0.523461	
	0.549774	
	0.554544	
	0.557997	
	0.562767	
	0.572963	
	0.577733	
	0.584804	
	0.585956	
	0.576088	
	0.568358	
	0.568194	
	0.553063	
	0.549116	
	0.521651	
	0.449453	
	0.370348	
	0.332851	
	0.321832	
	0.308675	
	0.298972	
	0.276605	
	0.267889	
	0.257692	
	0.258021	
	0.259830	
	0.273316	
	0.281374	
	0.292558	
	0.304399	
	0.332028	
	0.349954	
	0.410312	0.038540
	0.490239	
	0.487444	
	0.479385	
	0.508330	
	0.554708	
	0.563589	
	0.572470	
	0.566714	
	0.577075	
	0.579706	
	0.588258	
	0.592534	
	0.603553	
	0.593850	
	0.588422	
	0.583653	
	0.582173	
	0.568194	
	0.556188	
	0.543360	
	0.536288	
	0.526914	
	0.509317	
	0.452742	
	0.348474	
	0.309497	
	0.283183	
	0.277427	
	0.271836	
	0.272165	
	0.264270	
	0.263119	
	0.262461	
	0.261475	
	0.263777	
	0.266244	
	0.276605	
	0.292229	
	0.299629	
	0.320187	
	0.346501	
	0.388109	
	0.471820	
	0.512935	
	0.551748	
	0.559971	
	0.579542	
	0.588916	
	0.598290	
	0.604046	
	0.610625	
	0.608816	
	0.614572	
	0.607335	
	0.599277	
	0.597303	
	0.594508	
	0.587107	
	0.585956	
	0.573457	
	0.566714	
	0.550925	
	0.531190	
	0.519349	
	0.397484	
	0.360973	
	0.331041	
	0.326765	
	0.321009	
	0.331535	
	0.314760	
	0.299465	
	0.293215	
	0.303412	
	0.300781	
	0.294202	
	0.308181	
	0.307688	
	0.290091	
	0.304892	
	0.297985	
	0.309168	
	0.348803	
	0.424620	
	0.547636	
	0.569510	
	0.579377	
	0.577897	
	0.570167	
	0.574608	
	0.595001	
	0.606020	
	0.607335	
	0.602566	
	0.607500	
	0.613585	
	0.608980	
	0.598290	
	0.579542	
	0.561451	0.039690
	0.564576	
	0.574608	
	0.564082	
	0.537933	
	0.467873	
	0.333673	
	0.290420	
	0.268382	
	0.262626	
	0.255554	
	0.254238	
	0.257034	
	0.255225	
	0.252429	
	0.261310	
	0.272329	
	0.284992	
	0.315747	
	0.346172	
	0.359000	
	0.366072	
	0.436625	
	0.498462	
	0.529052	
	0.551419	
	0.563918	
	0.588587	
	0.596152	
	0.609145	
	0.604704	
	0.613092	
	0.610789	
	0.597139	
	0.578555	
	0.572634	
	0.578226	
	0.581351	
	0.588258	
	0.579706	
	0.561122	
	0.488101	
	0.334331	
	0.310155	
	0.315747	
	0.308839	
	0.306537	
	0.282690	
	0.273480	
	0.263777	
	0.277098	
	0.283512	
	0.289597	
	0.293873	
	0.296176	
	0.286637	
	0.287953	
	0.314595	
	0.388274	
	0.492706	
	0.539907	
	0.555695	
	0.570003	
	0.581022	
	0.566385	
	0.576910	
	0.562438	
	0.559477	
	0.565562	
	0.573950	
	0.585298	
	0.596810	
	0.593521	
	0.591383	
	0.578390	
	0.571812	
	0.566220	
	0.554050	
	0.511948	
	0.471491	
	0.476260	
	0.399457	
	0.347488	
	0.326765	
	0.312457	
	0.290749	
	0.280223	
	0.269204	
	0.270191	
	0.267231	
	0.264764	
	0.255390	
	0.248153	
	0.246509	
	0.249469	
	0.255225	
	0.257363	
	0.267066	
	0.277427	
	0.276441	
	0.286308	0.051961
	0.300945	
	0.313115	
	0.351764	
	0.388274	
	0.510797	
	0.531355	
	0.549445	
	0.564247	
	0.578390	
	0.584640	
	0.595659	
	0.603717	
	0.610789	
	0.608651	
	0.603717	
	0.604704	
	0.599441	
	0.587436	
	0.585956	
	0.568029	
	0.546814	
	0.525927	
	0.503890	
	0.406529	
	0.331041	
	0.317391	
	0.298807	
	0.297163	
	0.291571	
	0.298149	
	0.294038	
	0.288446	
	0.284664	
	0.283841	
	0.283677	
	0.279072	
	0.277263	
	0.285650	
	0.291571	
	0.304892	
	0.315089	
	0.342389	
	0.402417	
	0.499778	
	0.554050	
	0.572634	
	0.584147	
	0.582666	
	0.597303	
	0.604869	
	0.618848	
	0.624275	
	0.626906	
	0.624933	
	0.620657	
	0.620986	
	0.607171	
	0.599770	
	0.592863	
	0.582995	
	0.588258	
	0.582831	
	0.577897	
	0.525434	
	0.350612	
	0.327423	
	0.297163	
	0.285979	
	0.296176	
	0.310977	
	0.292887	
	0.268053	
	0.246180	
	0.228418	
	0.228911	
	0.232036	
	0.239272	
	0.259501	
	0.265915	
	0.279236	
	0.283677	
	0.310155	
	0.346501	
	0.381366	
	0.440572	
	0.520665	
	0.568523	
	0.585133	
	0.585956	
	0.595494	
	0.600428	
	0.607829	
	0.615723	
	0.620986	
	0.634143	
	0.638254	
	0.639405	
	0.636445	
	0.637267	
	0.622959	0.050691
	0.611283	
	0.611611	
	0.596646	
	0.574608	
	0.558326	
	0.521651	
	0.347652	
	0.276441	
	0.237463	
	0.213617	
	0.206380	
	0.205065	
	0.221511	
	0.237792	
	0.238943	
	0.237134	
	0.231214	
	0.234996	
	0.247495	
	0.267066	
	0.300945	
	0.355875	
	0.425277	
	0.414259	
	0.511455	
	0.535960	
	0.550925	
	0.574443	
	0.600922	
	0.605197	
	0.611283	
	0.617697	
	0.619834	
	0.610296	
	0.607171	
	0.607171	
	0.595823	
	0.578390	
	0.565069	
	0.552241	
	0.537275	
	0.521816	
	0.467708	
	0.365578	
	0.293544	
	0.266573	
	0.249304	
	0.241904	
	0.235654	
	0.239766	
	0.254567	
	0.263284	
	0.263613	
	0.275125	
	0.292393	
	0.323147	
	0.398141	
	0.483661	
	0.485635	
	0.505041	
	0.511126	
	0.521323	
	0.503725	
	0.477247	
	0.504383	
	0.538426	
	0.566878	
	0.572963	
	0.577568	
	0.582995	
	0.589574	
	0.591218	
	0.588422	
	0.589738	
	0.595165	
	0.599277	
	0.594836	
	0.583818	
	0.579542	
	0.573950	
	0.562931	
	0.538755	
	0.506028	
	0.503890	
	0.458005	
	0.340909	
	0.297820	
	0.290913	
	0.281868	
	0.278250	
	0.275454	
	0.264764	
	0.267889	
	0.272165	
	0.281868	
	0.294531	
	0.290420	
	0.291900	
	0.289104	
	0.309333	0.053496
	0.364263	
	0.476096	
	0.512935	
	0.514580	
	0.555530	
	0.585462	
	0.599935	
	0.600099	
	0.592534	
	0.588422	
	0.593027	
	0.590232	
	0.578390	
	0.572470	
	0.560629	
	0.562109	
	0.566549	
	0.559971	
	0.560464	
	0.549116	
	0.521487	
	0.443533	
	0.352257	
	0.326765	
	0.306701	
	0.293873	
	0.277427	
	0.273316	
	0.270355	
	0.269204	
	0.261475	
	0.251114	
	0.254238	
	0.252923	
	0.261639	
	0.267560	
	0.276934	
	0.299136	
	0.314102	
	0.333344	
	0.345514	
	0.368539	
	0.459485	
	0.495173	
	0.538755	
	0.563096	
	0.585956	
	0.591547	
	0.590725	
	0.595659	
	0.605691	
	0.608651	
	0.613585	
	0.620821	
	0.626084	
	0.622301	
	0.619341	
	0.622630	
	0.625262	
	0.617532	
	0.606184	
	0.582009	
	0.556517	
	0.551419	
	0.509317	
	0.375775	
	0.325121	
	0.295847	
	0.269533	
	0.250620	
	0.238286	
	0.229240	
	0.225787	
	0.227431	
	0.235654	
	0.244206	
	0.249304	
	0.264928	
	0.282854	
	0.290749	
	0.301110	
	0.320023	
	0.324299	
	0.352915	
	0.479385	
	0.529546	
	0.561122	
	0.573457	
	0.588258	
	0.596317	
	0.599277	
	0.609638	
	0.614407	
	0.622466	
	0.619177	
	0.613585	
	0.612269	
	0.603717	
	0.591876	
	0.591712	0.054521
	0.595988	
	0.580364	
	0.563260	
	0.562931	
	0.543689	
	0.431198	
	0.332851	
	0.307195	
	0.287459	
	0.287624	
	0.281868	
	0.257363	
	0.252429	
	0.250291	
	0.257528	
	0.260817	
	0.260323	
	0.261639	
	0.263284	
	0.274467	
	0.297820	
	0.335482	
	0.408009	
	0.484319	
	0.547965	
	0.578884	
	0.591876	
	0.583653	
	0.574279	
	0.579542	
	0.579871	
	0.599277	
	0.605197	
	0.611776	
	0.607664	
	0.605691	
	0.615887	
	0.626577	
	0.625591	
	0.625591	
	0.619012	
	0.617368	
	0.604375	
	0.589903	
	0.568852	
	0.519842	
	0.354559	
	0.291406	
	0.271671	
	0.247495	
	0.225129	
	0.208518	
	0.207203	
	0.205065	
	0.211150	
	0.220524	
	0.226773	
	0.235325	
	0.248482	
	0.263448	
	0.297327	
	0.330055	
	0.409160	
	0.489911	
	0.528065	
	0.543854	
	0.553886	
	0.558162	
	0.574608	
	0.582666	
	0.587436	
	0.588094	
	0.582173	
	0.584969	
	0.588094	
	0.589409	
	0.585956	
	0.572634	
	0.549774	
	0.553228	
	0.540071	
	0.534150	
	0.501258	
	0.459321	
	0.382189	
	0.331041	
	0.304728	
	0.294038	
	0.281703	
	0.273480	
	0.270684	
	0.259337	
	0.263284	
	0.262132	
	0.272493	
	0.276934	
	0.287953	
	0.301439	
	0.310155	
	0.322818	0.060954
	0.349461	
	0.416068	
	0.500929	
	0.522145	
	0.530203	
	0.559971	
	0.585462	
	0.587436	
	0.589245	
	0.594836	
	0.607335	
	0.619999	
	0.623782	
	0.622959	
	0.620986	
	0.619177	
	0.614736	
	0.601579	
	0.593685	
	0.587436	
	0.563918	
	0.549774	
	0.533822	
	0.540893	
	0.546978	
	0.541058	
	0.532341	
	0.518198	
	0.414094	
	0.344034	
	0.340745	
	0.319694	
	0.303741	
	0.309662	
	0.340416	
	0.325943	
	0.301932	
	0.288775	
	0.266902	
	0.255718	
	0.265093	
	0.258514	
	0.255225	
	0.272822	
	0.291078	
	0.308675	
	0.323970	
	0.346994	
	0.450111	
	0.549116	
	0.576252	
	0.594343	
	0.598784	
	0.600264	
	0.598126	
	0.594836	
	0.598290	
	0.601579	
	0.602073	
	0.598126	
	0.589738	
	0.579871	
	0.544018	
	0.516718	
	0.455538	
	0.373472	
	0.311635	
	0.275618	
	0.266244	
	0.263119	
	0.254896	
	0.244206	
	0.249633	
	0.252429	
	0.251936	
	0.255225	
	0.255554	
	0.262626	
	0.281374	
	0.304070	
	0.307195	
	0.321667	
	0.369525	
	0.386629	
	0.412778	
	0.499778	
	0.547965	
	0.573785	
	0.589245	
	0.594014	
	0.606842	
	0.618683	
	0.611776	
	0.614736	
	0.617697	
	0.617039	
	0.620328	
	0.621644	
	0.623617	
	0.613749	0.050209
	0.605526	
	0.593850	
	0.581844	
	0.589903	
	0.562931	
	0.443204	
	0.338442	
	0.301439	
	0.270520	
	0.261968	
	0.261968	
	0.240917	
	0.243219	
	0.232694	
	0.233516	
	0.241246	
	0.257363	
	0.263284	
	0.262955	
	0.261146	
	0.275289	
	0.290420	
	0.312128	
	0.357026	
	0.474780	
	0.543196	
	0.573457	
	0.594836	
	0.601415	
	0.603388	
	0.610625	
	0.615887	
	0.614407	
	0.609145	
	0.606842	
	0.614572	
	0.607335	
	0.605691	
	0.603553	
	0.601250	
	0.586613	
	0.572799	
	0.549939	
	0.531190	
	0.508001	
	0.441395	
	0.325450	
	0.272658	
	0.251114	
	0.246344	
	0.247331	
	0.237299	
	0.242068	
	0.243548	
	0.247495	
	0.244864	
	0.246509	
	0.252429	
	0.259172	
	0.263448	
	0.277427	
	0.303412	
	0.340745	
	0.365085	
	0.435803	
	0.511619	
	0.542373	
	0.564576	
	0.581680	
	0.590396	
	0.589245	
	0.603060	
	0.602895	
	0.608816	
	0.607171	
	0.602566	
	0.596810	
	0.588094	
	0.576088	
	0.563753	
	0.546321	
	0.528723	
	0.500765	
	0.486292	
	0.432185	
	0.361138	
	0.329068	
	0.311142	
	0.297985	
	0.286473	
	0.284170	
	0.268217	
	0.266737	
	0.264928	
	0.279072	
	0.285815	
	0.294367	
	0.307359	
	0.326437	
	0.343705	0.053252
	0.381860	
	0.475438	
	0.550268	
	0.575430	
	0.587436	
	0.599277	
	0.611447	
	0.620986	
	0.618025	
	0.605197	
	0.601744	
	0.612927	
	0.603060	
	0.608816	
	0.604375	
	0.592370	
	0.567536	
	0.527736	
	0.458499	
	0.488924	
	0.435803	
	0.345514	
	0.330548	
	0.324134	
	0.330877	
	0.299629	
	0.289433	
	0.296011	
	0.288611	
	0.284006	
	0.300123	
	0.287788	
	0.280388	
	0.258843	
	0.249798	
	0.241410	
	0.244700	
	0.269040	
	0.278414	
	0.285157	
	0.301767	
	0.306701	
	0.339264	
	0.424784	
	0.547801	
	0.584311	
	0.594672	
	0.589409	
	0.587765	
	0.589903	
	0.587107	
	0.610131	
	0.609638	
	0.608980	
	0.605033	
	0.606184	
	0.600264	
	0.585956	
	0.575923	
	0.584640	
	0.594508	
	0.598455	
	0.601908	
	0.605855	
	0.601908	
	0.585791	
	0.579706	
	0.547143	
	0.518691	
	0.484648	
	0.462939	
	0.365249	
	0.407845	
	0.368210	
	0.316240	
	0.270355	
	0.241246	
	0.230556	
	0.230885	
	0.228911	
	0.240095	
	0.259172	
	0.269040	
	0.278250	
	0.288775	
	0.322654	
	0.350612	
	0.409489	
	0.497476	
	0.558820	
	0.587436	
	0.598290	
	0.583818	
	0.585956	
	0.592698	
	0.588094	
	0.588094	
	0.581186	
	0.572470	
	0.566220	0.074567
	0.554708	
	0.550103	
	0.519349	
	0.493364	
	0.364427	
	0.311800	
	0.302261	
	0.307688	
	0.297656	
	0.271342	
	0.277098	
	0.276769	
	0.275454	
	0.268546	
	0.285650	
	0.297163	
	0.314266	
	0.324956	
	0.316240	
	0.311142	
	0.353079	
	0.419521	
	0.486950	
	0.497476	
	0.518856	
	0.550432	
	0.547636	
	0.542045	
	0.546485	
	0.570167	
	0.563424	
	0.570661	
	0.570332	
	0.581680	
	0.581351	
	0.576417	
	0.569838	
	0.573292	
	0.571319	
	0.564740	
	0.540893	
	0.530532	
	0.476589	
	0.379393	
	0.353408	
	0.322654	
	0.315418	
	0.302261	
	0.292558	
	0.283512	
	0.277921	
	0.258843	
	0.261803	
	0.261146	
	0.259666	
	0.258843	
	0.262955	
	0.267066	
	0.278578	
	0.294860	
	0.326272	
	0.343540	
	0.388438	
	0.436461	
	0.483825	
	0.541222	
	0.563260	
	0.573950	
	0.580693	
	0.588094	
	0.598784	
	0.609309	
	0.609145	
	0.612434	
	0.609473	
	0.607500	
	0.601908	
	0.592698	
	0.580364	
	0.576252	
	0.567043	
	0.549445	
	0.522145	
	0.479221	
	0.441230	
	0.333179	
	0.308510	
	0.291242	
	0.279894	
	0.268546	
	0.268382	
	0.258843	
	0.262132	
	0.260323	
	0.267724	
	0.272329	
	0.278085	
	0.287953	
	0.298643	
	0.301767	0.069398
	0.313280	
	0.330877	
	0.393865	
	0.516389	
	0.554544	
	0.578555	
	0.595823	
	0.595330	
	0.598619	
	0.599606	
	0.604211	
	0.614736	
	0.613585	
	0.618848	
	0.611447	
	0.607664	
	0.607664	
	0.590560	
	0.577568	
	0.570332	
	0.562438	
	0.574279	
	0.583489	
	0.608980	
	0.609967	
	0.599277	
	0.593356	
	0.587765	
	0.566220	
	0.546156	
	0.534479	
	0.407022	
	0.334495	
	0.280223	
	0.235654	
	0.209834	
	0.201446	
	0.200460	
	0.218057	
	0.253416	
	0.289762	
	0.314266	
	0.321503	
	0.339429	
	0.357191	
	0.411792	
	0.463268	
	0.511948	
	0.551419	
	0.574608	
	0.578555	
	0.583324	
	0.573785	
	0.564576	
	0.551254	
	0.562273	
	0.587765	
	0.595330	
	0.593850	
	0.605855	
	0.615723	
	0.614736	
	0.613914	
	0.625591	
	0.623453	
	0.609802	
	0.590232	
	0.590725	
	0.585298	
	0.557504	
	0.533493	
	0.369196	
	0.271178	
	0.227925	
	0.226938	
	0.229569	
	0.234174	
	0.239272	
	0.252594	
	0.250620	
	0.259337	
	0.251114	
	0.255061	
	0.251607	
	0.254567	
	0.278250	
	0.308346	
	0.337784	
	0.375775	
	0.445671	
	0.511619	
	0.561122	
	0.568029	
	0.580528	
	0.582831	
	0.584475	
	0.580364	
	0.575923	
	0.586449	
	0.599770	0.063615
	0.590560	
	0.582666	
	0.571319	
	0.539907	
	0.490733	
	0.358835	
	0.325121	
	0.303412	
	0.296669	
	0.300123	
	0.293873	
	0.274303	
	0.284664	
	0.277098	
	0.275125	
	0.276769	
	0.287953	
	0.323805	
	0.360809	
	0.344527	
	0.372486	
	0.338936	
	0.330713	
	0.315582	
	0.326437	
	0.353408	
	0.346007	
	0.431034	
	0.524118	
	0.544676	
	0.551419	
	0.574443	
	0.584475	
	0.594508	
	0.590560	
	0.590396	
	0.582009	
	0.575759	
	0.563918	
	0.568687	
	0.553392	
	0.543196	
	0.514086	
	0.447315	
	0.384985	
	0.323147	
	0.303741	
	0.291735	
	0.286637	
	0.279401	
	0.274960	
	0.256705	
	0.266244	
	0.259337	
	0.262955	
	0.268875	
	0.275947	
	0.282032	
	0.292229	
	0.295682	
	0.315582	
	0.338771	
	0.386629	
	0.453565	
	0.502245	
	0.545663	
	0.557997	
	0.569510	
	0.570825	
	0.582173	
	0.589080	
	0.602237	
	0.603717	
	0.611118	
	0.608487	
	0.603553	
	0.603553	
	0.597303	
	0.591876	
	0.587436	
	0.568852	
	0.543360	
	0.499943	
	0.415574	
	0.372650	
	0.324956	
	0.312293	
	0.305057	
	0.297491	
	0.286144	
	0.280716	
	0.268546	
	0.265422	
	0.267560	
	0.273151	
	0.268053	
	0.270027	
	0.278250	
	0.295189	
	0.300781	0.056754
	0.318378	
	0.336633	
	0.407845	
	0.493200	
	0.545992	
	0.578226	
	0.594508	
	0.614736	
	0.626906	
	0.637761	
	0.641050	
	0.653056	
	0.657003	
	0.662759	
	0.658483	
	0.660785	
	0.657660	
	0.635458	
	0.619834	
	0.607335	
	0.553557	
	0.441395	
	0.471162	
	0.543196	
	0.566220	
	0.532835	
	0.386300	
	0.336469	
	0.298972	
	0.269369	
	0.249304	
	0.234667	
	0.237134	
	0.230063	
	0.233352	
	0.234010	
	0.223155	
	0.214932	
	0.218221	
	0.226116	
	0.242068	
	0.255061	
	0.273480	
	0.283019	
	0.297327	
	0.343212	
	0.475767	
	0.556517	
	0.577239	
	0.593521	
	0.601086	
	0.614901	
	0.616052	
	0.620492	
	0.621644	
	0.616710	
	0.614407	
	0.607993	
	0.586285	
	0.540236	
	0.431363	
	0.398470	
	0.421330	
	0.489746	
	0.534644	
	0.485306	
	0.353408	
	0.292887	
	0.263777	
	0.250620	
	0.251771	
	0.234832	
	0.237134	
	0.236805	
	0.240917	
	0.245029	
	0.253416	
	0.268217	
	0.278907	
	0.283019	
	0.296834	
	0.297327	
	0.303248	
	0.318214	
	0.336633	
	0.466228	
	0.555037	
	0.583489	
	0.599112	
	0.609309	
	0.615065	
	0.623288	
	0.619670	
	0.623946	
	0.619670	
	0.611283	
	0.606513	
	0.596317	
	0.577239	
	0.558491	0.054640
	0.517704	
	0.456196	
	0.373308	
	0.354230	
	0.357026	
	0.316733	
	0.300945	
	0.284828	
	0.283348	
	0.281045	
	0.272822	
	0.258021	
	0.259666	
	0.258514	
	0.266408	
	0.269533	
	0.272165	
	0.279236	
	0.289433	
	0.303905	
	0.322983	
	0.349461	
	0.434652	
	0.492706	
	0.516882	
	0.554873	
	0.568852	
	0.585956	
	0.590725	
	0.597797	
	0.595988	
	0.610789	
	0.609473	
	0.614078	
	0.608651	
	0.608980	
	0.607993	
	0.604704	
	0.593850	
	0.586613	
	0.567043	
	0.561944	
	0.546814	
	0.519842	
	0.460965	
	0.339922	
	0.320187	
	0.304234	
	0.300123	
	0.296998	
	0.295518	
	0.283019	
	0.286802	
	0.269533	
	0.267560	
	0.268711	
	0.278907	
	0.276605	
	0.278250	
	0.276112	
	0.290913	
	0.306208	
	0.371828	
	0.480536	
	0.541058	
	0.583160	
	0.590889	
	0.593850	
	0.600428	
	0.604869	
	0.610131	
	0.610131	
	0.589903	
	0.592370	
	0.621479	
	0.634472	
	0.638912	
	0.642366	
	0.636445	
	0.625426	
	0.618025	
	0.611447	
	0.574937	
	0.550597	
	0.580364	
	0.581351	
	0.556024	
	0.338442	
	0.294860	
	0.292887	
	0.304563	
	0.307688	
	0.312786	
	0.312128	
	0.321009	
	0.305715	
	0.272329	
	0.257856	
	0.254732	
	0.256541	0.070891
	0.268875	
	0.273151	
	0.285815	
	0.305715	
	0.352092	
	0.538098	
	0.573128	
	0.588916	
	0.605033	
	0.611611	
	0.604046	
	0.605362	
	0.601908	
	0.599770	
	0.572470	
	0.553886	
	0.506686	
	0.441230	
	0.385971	
	0.446493	
	0.504712	
	0.505699	
	0.501423	
	0.513099	
	0.535795	
	0.528394	
	0.548623	
	0.446657	
	0.376597	
	0.334824	
	0.333837	
	0.358671	
	0.351599	
	0.332028	
	0.310977	
	0.264106	
	0.241410	
	0.244864	
	0.267231	
	0.270849	
	0.267724	
	0.292887	
	0.319858	
	0.359164	
	0.420179	
	0.533493	
	0.559642	
	0.571483	
	0.566714	
	0.576252	
	0.573457	
	0.562602	
	0.557339	
	0.566714	
	0.546156	
	0.542373	
	0.565562	
	0.572470	
	0.542373	
	0.512606	
	0.383833	
	0.322654	
	0.311800	
	0.317227	
	0.336469	
	0.337949	
	0.326601	
	0.294531	
	0.273974	
	0.259830	
	0.259337	
	0.255554	
	0.249633	
	0.244042	
	0.246344	
	0.257199	
	0.270191	
	0.283348	
	0.298972	
	0.296340	
	0.310319	
	0.332686	
	0.413601	
	0.499943	
	0.522145	
	0.544018	
	0.557175	
	0.579871	
	0.584311	
	0.596646	
	0.605362	
	0.609473	
	0.605855	
	0.605033	
	0.590560	
	0.577239	
	0.573292	
	0.563096	
	0.552077	
	0.529710	0.040873
	0.536453	
	0.544840	
	0.534644	
	0.481687	
	0.460801	
	0.349132	
	0.321174	
	0.303412	
	0.287130	
	0.264928	
	0.262626	
	0.246180	
	0.238615	
	0.241904	
	0.253745	
	0.260817	
	0.263448	
	0.276934	
	0.295189	
	0.302590	
	0.321009	
	0.335482	
	0.350941	
	0.361302	
	0.390083	
	0.495173	
	0.542867	
	0.570990	
	0.590725	
	0.603060	
	0.610296	
	0.619670	
	0.614572	
	0.616874	
	0.611611	
	0.611447	
	0.607500	
	0.605855	
	0.598126	
	0.592205	
	0.578061	
	0.564247	
	0.538755	
	0.514580	
	0.455374	
	0.362782	
	0.359164	
	0.338936	
	0.345350	
	0.342554	
	0.341567	
	0.304728	
	0.291078	
	0.292558	
	0.298643	
	0.298643	
	0.283348	
	0.275125	
	0.296011	
	0.291078	
	0.271507	
	0.270191	
	0.287624	
	0.294531	
	0.297820	
	0.327752	
	0.402911	
	0.540729	
	0.564576	
	0.581844	
	0.591876	
	0.601086	
	0.604869	
	0.610131	
	0.605526	
	0.603882	
	0.601415	
	0.597303	
	0.586778	
	0.585298	
	0.580364	
	0.577897	
	0.576910	
	0.558326	
	0.532670	
	0.523625	
	0.458827	
	0.330877	
	0.317556	
	0.302261	
	0.300616	
	0.297327	
	0.287788	
	0.276441	
	0.273809	
	0.260488	
	0.255554	
	0.265586	
	0.290091	
	0.319365	0.070103
	0.377090	
	0.458992	
	0.531684	
	0.558326	
	0.555037	
	0.558162	
	0.547801	
	0.561286	
	0.593850	
	0.622137	
	0.640392	
	0.657660	
	0.656180	
	0.639734	
	0.615723	
	0.613092	
	0.614407	
	0.606513	
	0.582009	
	0.562109	
	0.489746	
	0.334660	
	0.303083	
	0.305879	
	0.338607	
	0.356697	
	0.341896	
	0.290091	
	0.266573	
	0.248318	
	0.240095	
	0.225293	
	0.221017	
	0.225787	
	0.236970	
	0.250949	
	0.264435	
	0.272165	
	0.276441	
	0.271836	
	0.284828	
	0.309990	
	0.345185	
	0.404555	
	0.413272	
	0.499285	
	0.520007	
	0.556682	
	0.565562	
	0.577239	
	0.592698	
	0.618848	
	0.629044	
	0.637267	
	0.647628	
	0.652562	
	0.649109	
	0.648944	
	0.647299	
	0.646806	
	0.643517	
	0.641379	
	0.626413	
	0.615394	
	0.598784	
	0.544347	
	0.435310	
	0.362289	
	0.349790	
	0.313773	
	0.288940	
	0.248647	
	0.225129	
	0.217564	
	0.216248	
	0.204900	
	0.199966	
	0.202433	
	0.209834	
	0.218879	
	0.237463	
	0.256541	
	0.272987	
	0.289597	
	0.329561	
	0.452742	
	0.538426	
	0.555037	
	0.556024	
	0.560135	
	0.572634	
	0.593521	
	0.602566	
	0.596152	
	0.585298	
	0.582009	
	0.581844	
	0.577239	
	0.577897	
	0.576746	0.047926
	0.557833	
	0.537769	
	0.513757	
	0.412121	
	0.349626	
	0.313115	
	0.287788	
	0.270684	
	0.265915	
	0.264435	
	0.266079	
	0.259172	
	0.249798	
	0.248811	
	0.253909	
	0.263284	
	0.265093	
	0.271507	
	0.285650	
	0.291571	
	0.308346	
	0.337784	
	0.380873	
	0.426922	
	0.487279	
	0.535302	
	0.555037	
	0.580693	
	0.587765	
	0.594014	
	0.592205	
	0.598784	
	0.601744	
	0.602402	
	0.597303	
	0.596317	
	0.593850	
	0.588587	
	0.573785	
	0.564411	
	0.540893	
	0.533822	
	0.507837	
	0.435638	
	0.367223	
	0.325121	
	0.309004	
	0.292064	
	0.288446	
	0.277427	
	0.273974	
	0.265586	
	0.258514	
	0.257199	
	0.263284	
	0.271836	
	0.280716	
	0.289597	
	0.298643	
	0.302096	
	0.316898	
	0.332851	
	0.358506	
	0.470833	
	0.546485	
	0.582009	
	0.585462	
	0.601579	
	0.606020	
	0.609473	
	0.616874	
	0.621644	
	0.623124	
	0.623453	
	0.627235	
	0.626084	
	0.622137	
	0.610789	
	0.594672	
	0.591054	
	0.570825	
	0.550597	
	0.519842	
	0.474780	
	0.469188	
	0.478398	
	0.397813	
	0.375446	
	0.379886	
	0.309662	
	0.279565	
	0.271342	
	0.269369	
	0.261639	
	0.260981	
	0.266573	
	0.260488	
	0.251771	
	0.251936	
	0.253252	0.048667
	0.274138	
	0.301932	
	0.335317	
	0.416561	
	0.490404	
	0.528723	
	0.539907	
	0.564576	
	0.582502	
	0.586613	
	0.587271	
	0.606184	
	0.618848	
	0.626742	
	0.630360	
	0.639241	
	0.641543	
	0.641872	
	0.638583	
	0.625755	
	0.618025	
	0.606513	
	0.596646	
	0.596481	
	0.589080	
	0.559642	
	0.523625	
	0.471326	
	0.422975	
	0.366072	
	0.314102	
	0.264435	
	0.236641	
	0.210821	
	0.201446	
	0.197499	
	0.198322	
	0.215261	
	0.240424	
	0.262132	
	0.288117	
	0.309990	
	0.317062	
	0.346994	
	0.524118	
	0.554873	
	0.580199	
	0.606842	
	0.605691	
	0.604211	
	0.599441	
	0.610296	
	0.613914	
	0.611283	
	0.596974	
	0.580857	
	0.555037	
	0.538426	
	0.524283	
	0.522638	
	0.484648	
	0.436790	
	0.347488	
	0.318707	
	0.295847	
	0.280059	
	0.270355	
	0.263777	
	0.264599	
	0.257199	
	0.257363	
	0.256376	
	0.253087	
	0.255883	
	0.259008	
	0.271342	
	0.274631	
	0.290091	
	0.309168	
	0.311142	
	0.326601	
	0.357849	
	0.382024	
	0.466722	
	0.500436	
	0.544183	
	0.555859	
	0.570496	
	0.577239	
	0.585298	
	0.591218	
	0.597632	
	0.607171	
	0.612434	
	0.615065	
	0.608816	
	0.599606	
	0.593356	
	0.584969	
	0.576910	0.059511
	0.572634	
	0.568029	
	0.536288	
	0.467708	
	0.369032	
	0.319529	
	0.290420	
	0.272987	
	0.269698	
	0.260817	
	0.252594	
	0.251442	
	0.248482	
	0.248482	
	0.251607	
	0.256541	
	0.258350	
	0.264928	
	0.279401	
	0.288117	
	0.298478	
	0.312457	
	0.346172	
	0.412285	
	0.501916	
	0.545334	
	0.563424	
	0.576746	
	0.580364	
	0.584969	
	0.588094	
	0.598784	
	0.610789	
	0.614901	
	0.612927	
	0.608487	
	0.599606	
	0.602237	
	0.590889	
	0.577075	
	0.570167	
	0.560464	
	0.537440	
	0.493200	
	0.426429	
	0.355875	
	0.322654	
	0.309990	
	0.306372	
	0.295518	
	0.282690	
	0.286802	
	0.278743	
	0.284006	
	0.278414	
	0.289762	
	0.293215	
	0.314102	
	0.329397	
	0.331206	
	0.344527	
	0.365249	
	0.408831	
	0.463268	
	0.474451	
	0.432349	
	0.510468	
	0.537933	
	0.559806	
	0.590560	
	0.594508	
	0.596481	
	0.606678	
	0.614243	
	0.618683	
	0.611118	
	0.618519	
	0.625755	
	0.629538	
	0.640885	
	0.649437	
	0.644010	
	0.627729	
	0.615559	
	0.613092	
	0.587436	
	0.566549	
	0.531026	
	0.503890	
	0.448795	
	0.304563	
	0.236970	
	0.201611	
	0.197499	
	0.197170	
	0.205229	
	0.224142	
	0.238943	
	0.250620	
	0.262297	0.062156
	0.285321	
	0.333837	
	0.411134	
	0.519185	
	0.564905	
	0.577239	
	0.587765	
	0.591218	
	0.581515	
	0.570825	
	0.566878	
	0.558326	
	0.580199	
	0.589080	
	0.582009	
	0.557010	
	0.548787	
	0.550761	
	0.556353	
	0.554873	
	0.551748	
	0.547307	
	0.548623	
	0.510139	
	0.516553	
	0.479878	
	0.376104	
	0.314102	
	0.284664	
	0.258514	
	0.237957	
	0.236641	
	0.229734	
	0.240259	
	0.241575	
	0.240424	
	0.250620	
	0.263284	
	0.271836	
	0.273316	
	0.288117	
	0.321996	
	0.418206	
	0.531026	
	0.555037	
	0.573292	
	0.587107	
	0.604046	
	0.613256	
	0.615065	
	0.620328	
	0.615065	
	0.613585	
	0.603060	
	0.597468	
	0.586778	
	0.577404	
	0.563918	
	0.546649	
	0.538426	
	0.530532	
	0.476754	
	0.384162	
	0.324299	
	0.305550	
	0.305879	
	0.289433	
	0.277098	
	0.270355	
	0.266902	
	0.256376	
	0.247660	
	0.236641	
	0.239766	
	0.241904	
	0.252429	
	0.253909	
	0.262297	
	0.278250	
	0.287130	
	0.303248	
	0.318707	
	0.343705	
	0.390083	
	0.475274	
	0.523461	
	0.551254	
	0.569016	
	0.580199	
	0.586613	
	0.595988	
	0.601579	
	0.611776	
	0.612269	
	0.611447	
	0.612763	
	0.607171	
	0.604869	
	0.601250	
	0.595823	0.068630
	0.588422	
	0.574279	
	0.555366	
	0.515731	
	0.452413	
	0.348639	
	0.309826	
	0.288775	
	0.277756	
	0.267560	
	0.262790	
	0.259501	
	0.253416	
	0.254567	
	0.258021	
	0.267724	
	0.273809	
	0.280223	
	0.284006	
	0.294202	
	0.306208	
	0.325779	
	0.351599	
	0.430705	
	0.518527	
	0.547307	
	0.566878	
	0.583818	
	0.589903	
	0.597303	
	0.601415	
	0.602402	
	0.612434	
	0.612598	
	0.611776	
	0.607335	
	0.601744	
	0.609967	
	0.615723	
	0.614407	
	0.612927	
	0.606020	
	0.604211	
	0.605197	
	0.598619	
	0.574608	
	0.558820	
	0.536946	
	0.393208	
	0.300781	
	0.259501	
	0.229240	
	0.214603	
	0.222662	
	0.218879	
	0.231543	
	0.247331	
	0.272822	
	0.315089	
	0.493529	
	0.546321	
	0.570332	
	0.578719	
	0.590889	
	0.594508	
	0.595494	
	0.607664	
	0.602731	
	0.598290	
	0.611118	
	0.618025	
	0.618025	
	0.610954	
	0.594179	
	0.567700	
	0.517047	
	0.539084	
	0.558984	
	0.561451	
	0.550432	
	0.534479	
	0.465077	
	0.330548	
	0.302754	
	0.293873	
	0.264928	
	0.249962	
	0.238286	
	0.233352	
	0.241410	
	0.251936	
	0.257856	
	0.266244	
	0.298643	
	0.318707	
	0.350941	
	0.486786	
	0.528394	
	0.517375	
	0.490733	0.065073
	0.501423	
	0.572963	
	0.598784	
	0.605691	
	0.600428	
	0.600593	
	0.604211	
	0.591218	
	0.562602	
	0.526750	
	0.514415	
	0.540400	
	0.564576	
	0.567700	
	0.583653	
	0.589738	
	0.581186	
	0.551090	
	0.527079	
	0.532835	
	0.521487	
	0.499120	
	0.413765	
	0.330055	
	0.314266	
	0.307524	
	0.287788	
	0.274138	
	0.259008	
	0.247331	
	0.236970	
	0.226444	
	0.214274	
	0.213288	
	0.213617	
	0.223484	
	0.229734	
	0.242726	
	0.258185	
	0.273151	
	0.284992	
	0.311800	
	0.353902	
	0.424620	
	0.502245	
	0.530532	
	0.565891	
	0.573785	
	0.582173	
	0.585462	
	0.588916	
	0.583982	
	0.595823	
	0.592698	
	0.596646	
	0.595165	
	0.592534	
	0.590396	
	0.585462	
	0.579542	
	0.569510	
	0.556353	
	0.535466	
	0.501752	
	0.456032	
	0.382682	
	0.326601	
	0.306208	
	0.290255	
	0.283677	
	0.276605	
	0.275125	
	0.261968	
	0.267066	
	0.266737	
	0.271836	
	0.267889	
	0.269862	
	0.281374	
	0.293380	
	0.300616	
	0.322325	
	0.330384	
	0.366401	
	0.428402	
	0.508001	
	0.546814	
	0.568687	
	0.585791	
	0.592534	
	0.596810	
	0.601908	
	0.609638	
	0.611447	
	0.609638	
	0.607664	
	0.602731	
	0.596646	
	0.588258	
	0.582995	0.070202
	0.578719	
	0.567043	
	0.560464	
	0.537111	
	0.510468	
	0.439914	
	0.350777	
	0.315418	
	0.302919	
	0.292558	
	0.288446	
	0.287953	
	0.277098	
	0.282361	
	0.278250	
	0.285321	
	0.300781	
	0.292558	
	0.310977	
	0.381038	
	0.511784	
	0.538262	
	0.555530	
	0.567043	
	0.573292	
	0.583489	
	0.598784	
	0.608651	
	0.624275	
	0.626413	
	0.627729	
	0.617532	
	0.618025	
	0.607171	
	0.613914	
	0.602073	
	0.591383	
	0.584311	
	0.569016	
	0.568358	
	0.574937	
	0.575923	
	0.570661	
	0.549610	
	0.541058	
	0.517540	
	0.374624	
	0.369361	
	0.440243	
	0.515402	
	0.479714	
	0.423797	
	0.309333	
	0.297163	
	0.284499	
	0.275783	
	0.258514	
	0.266408	
	0.263448	
	0.278578	
	0.281045	
	0.281210	
	0.274467	
	0.267231	
	0.279401	
	0.325285	
	0.408667	
	0.495338	
	0.536453	
	0.556353	
	0.587929	
	0.608322	
	0.619999	
	0.632169	
	0.650589	
	0.656180	
	0.661772	
	0.649437	
	0.643023	
	0.626413	
	0.602237	
	0.596974	
	0.597468	
	0.601086	
	0.591547	
	0.563918	
	0.361138	
	0.272822	
	0.245851	
	0.225787	
	0.212794	
	0.207531	
	0.203913	
	0.205722	
	0.201117	
	0.199144	
	0.199473	
	0.201611	
	0.212794	
	0.227431	0.051116
	0.242233	
	0.265422	
	0.277427	
	0.284828	
	0.287624	
	0.302919	
	0.411298	
	0.531026	
	0.547636	
	0.541222	
	0.555366	
	0.556353	
	0.584969	
	0.585956	
	0.598784	
	0.602731	
	0.610296	
	0.607007	
	0.597139	
	0.586120	
	0.584147	
	0.555037	
	0.538591	
	0.528888	
	0.485635	
	0.408996	
	0.330548	
	0.296669	
	0.270849	
	0.272000	
	0.270355	
	0.264435	
	0.245851	
	0.246509	
	0.244700	
	0.245193	
	0.255554	
	0.278907	
	0.287953	
	0.296011	
	0.304399	
	0.312951	
	0.325285	
	0.381531	
	0.491391	
	0.531026	
	0.560464	
	0.569510	
	0.579048	
	0.581680	
	0.591876	
	0.596481	
	0.604540	
	0.604704	
	0.606513	
	0.600593	
	0.601744	
	0.594508	
	0.587436	
	0.578884	
	0.573621	
	0.556024	
	0.545498	
	0.509317	
	0.452413	
	0.363111	
	0.320187	
	0.297820	
	0.284335	
	0.278578	
	0.277098	
	0.275783	
	0.264928	
	0.272822	
	0.268711	
	0.267560	
	0.266244	
	0.268711	
	0.278578	
	0.290091	
	0.297327	
	0.325943	
	0.355053	
	0.409160	
	0.483825	
	0.496489	
	0.547472	
	0.566220	
	0.582831	
	0.592205	
	0.598126	
	0.601250	
	0.613092	
	0.610460	
	0.615230	
	0.612105	
	0.617861	
	0.615723	
	0.610954	
	0.601086	0.057833
	0.589903	
	0.579048	
	0.564576	
	0.539249	
	0.520007	
	0.443697	
	0.321174	
	0.286802	
	0.267395	
	0.260323	
	0.257034	
	0.259830	
	0.250291	
	0.255225	
	0.254403	
	0.262461	
	0.270355	
	0.287295	
	0.341238	
	0.437612	
	0.520665	
	0.564740	
	0.582831	
	0.595988	
	0.607007	
	0.605362	
	0.612269	
	0.610789	
	0.621808	
	0.623453	
	0.614407	
	0.605197	
	0.607993	
	0.605197	
	0.607500	
	0.600099	
	0.595001	
	0.591876	
	0.606020	
	0.605362	
	0.595165	
	0.593850	
	0.579542	
	0.531190	
	0.490404	
	0.525598	
	0.512113	
	0.503067	
	0.368703	
	0.369361	
	0.340087	
	0.312293	
	0.276441	
	0.284828	
	0.298149	
	0.311471	
	0.319200	
	0.303905	
	0.270520	
	0.258679	
	0.258514	
	0.267066	
	0.251771	
	0.243877	
	0.237134	
	0.244700	
	0.273480	
	0.301274	
	0.336304	
	0.461459	
	0.555366	
	0.556353	
	0.552735	
	0.532012	
	0.560135	
	0.572470	
	0.579871	
	0.583653	
	0.575101	
	0.571483	
	0.572305	
	0.569181	
	0.558326	
	0.541222	
	0.487608	
	0.393372	
	0.360644	
	0.358342	
	0.324134	
	0.289926	
	0.270849	
	0.257528	
	0.233187	
	0.241246	
	0.239930	
	0.246344	
	0.259008	
	0.269040	
	0.277263	
	0.288775	0.067713
	0.285321	
	0.304234	
	0.336962	
	0.453400	
	0.520171	
	0.512771	
	0.537769	
	0.555201	
	0.574114	
	0.576910	
	0.579706	
	0.580857	
	0.597139	
	0.604375	
	0.609145	
	0.599606	
	0.599441	
	0.586449	
	0.576746	
	0.561451	
	0.561780	
	0.547965	
	0.536288	
	0.491884	
	0.430211	
	0.400773	
	0.322983	
	0.313444	
	0.296176	
	0.294038	
	0.287624	
	0.286144	
	0.267066	
	0.264106	
	0.261475	
	0.269533	
	0.271836	
	0.276441	
	0.281374	
	0.292064	
	0.295847	
	0.319200	
	0.352750	
	0.438763	
	0.518856	
	0.524941	
	0.553886	
	0.563753	
	0.573457	
	0.575101	
	0.588751	
	0.592370	
	0.607007	
	0.611447	
	0.612927	
	0.613256	
	0.610954	
	0.606184	
	0.594836	
	0.587107	
	0.575430	
	0.559148	
	0.545005	
	0.509481	
	0.441888	
	0.476425	
	0.378571	
	0.325450	
	0.299301	
	0.282197	
	0.274138	
	0.281539	
	0.268711	
	0.269862	
	0.258185	
	0.258350	
	0.256047	
	0.262132	
	0.272822	
	0.285650	
	0.292229	
	0.304070	
	0.326437	
	0.403404	
	0.498627	
	0.557668	
	0.593850	
	0.607993	
	0.616874	
	0.622630	
	0.637267	
	0.651740	
	0.658647	
	0.656509	
	0.655687	
	0.648286	
	0.637761	
	0.619341	
	0.603388	
	0.596810	0.056979
	0.597632	
	0.601086	
	0.595165	
	0.561286	
	0.464419	
	0.328081	
	0.286802	
	0.257034	
	0.246509	
	0.244042	
	0.248482	
	0.248318	
	0.232201	
	0.237628	
	0.233516	
	0.235325	
	0.252265	
	0.263284	
	0.255225	
	0.244371	
	0.243713	
	0.260652	
	0.311800	
	0.382353	
	0.509481	
	0.540729	
	0.564411	
	0.584969	
	0.613092	
	0.621479	
	0.611118	
	0.608322	
	0.614901	
	0.603553	
	0.603224	
	0.594508	
	0.591547	
	0.584147	
	0.578226	
	0.578061	
	0.586613	
	0.578390	
	0.582666	
	0.586942	
	0.585791	
	0.571483	
	0.532506	
	0.476754	
	0.350777	
	0.307030	
	0.290913	
	0.302261	
	0.280223	
	0.271013	
	0.249633	
	0.240259	
	0.241081	
	0.240753	
	0.238121	
	0.248153	
	0.242726	
	0.235983	
	0.236148	
	0.245686	
	0.274631	
	0.306537	
	0.357684	
	0.423633	
	0.515566	
	0.542209	
	0.565727	
	0.574608	
	0.587600	
	0.585462	
	0.594343	
	0.597961	
	0.603553	
	0.603553	
	0.601250	
	0.594672	
	0.586942	
	0.570825	
	0.558984	
	0.512113	
	0.446657	
	0.348968	
	0.299629	
	0.288775	
	0.277427	
	0.276112	
	0.274138	
	0.271507	
	0.256047	
	0.259172	
	0.257856	
	0.265586	
	0.269533	
	0.271178	
	0.278907	
	0.285157	0.070233
	0.284170	
	0.300616	
	0.320680	
	0.351928	
	0.421001	
	0.522967	
	0.552735	
	0.566056	
	0.581515	
	0.586613	
	0.591383	
	0.596646	
	0.609802	
	0.603717	
	0.605033	
	0.600428	
	0.598948	
	0.597797	
	0.589409	
	0.585133	
	0.583160	
	0.573950	
	0.565562	
	0.541058	
	0.514086	
	0.482510	
	0.358013	
	0.335646	
	0.307524	
	0.301603	
	0.284006	
	0.275125	
	0.259172	
	0.257692	
	0.256047	
	0.260652	
	0.261803	
	0.275783	
	0.288446	
	0.319036	
	0.337784	
	0.415739	
	0.518527	
	0.554873	
	0.562273	
	0.572799	
	0.593192	
	0.610954	
	0.629209	
	0.638747	
	0.646477	
	0.648286	
	0.640721	
	0.626742	
	0.620163	
	0.613585	
	0.608816	
	0.604211	
	0.600099	
	0.588751	
	0.576417	
	0.564905	
	0.534973	
	0.509152	
	0.535795	
	0.560300	
	0.533822	
	0.521980	
	0.390083	
	0.335646	
	0.305221	
	0.287624	
	0.268546	
	0.256212	
	0.234832	
	0.228582	
	0.235325	
	0.251442	
	0.259830	
	0.255225	
	0.255225	
	0.259830	
	0.264435	
	0.274467	
	0.274796	
	0.278907	
	0.332193	
	0.458992	
	0.520500	
	0.540729	
	0.553886	
	0.572634	
	0.608158	
	0.618354	
	0.612269	
	0.595988	
	0.606349	
	0.618190	
	0.629702	
	0.635129	0.064913
	0.637925	
	0.634143	
	0.621479	
	0.604375	
	0.575430	
	0.555366	
	0.531026	
	0.530368	
	0.452413	
	0.313280	
	0.256212	
	0.243055	
	0.223813	
	0.207038	
	0.213781	
	0.232529	
	0.238615	
	0.240095	
	0.240588	
	0.253252	
	0.276605	
	0.300616	
	0.332686	
	0.487115	
	0.551419	
	0.572799	
	0.591876	
	0.584969	
	0.583489	
	0.584804	
	0.592534	
	0.576910	
	0.584311	
	0.583324	
	0.586285	
	0.589409	
	0.597303	
	0.583982	
	0.561122	
	0.538755	
	0.536124	
	0.500272	
	0.418535	
	0.335317	
	0.317556	
	0.302919	
	0.287295	
	0.283183	
	0.272987	
	0.272658	
	0.265257	
	0.263941	
	0.252429	
	0.251936	
	0.247824	
	0.255718	
	0.266737	
	0.276934	
	0.294202	
	0.328246	
	0.341731	
	0.371828	
	0.377748	
	0.412943	
	0.497805	
	0.509481	
	0.546485	
	0.569838	
	0.593192	
	0.602073	
	0.606513	
	0.611283	
	0.618190	
	0.614407	
	0.617368	
	0.616874	
	0.615887	
	0.615723	
	0.612763	
	0.604375	
	0.595823	
	0.571976	
	0.527572	
	0.368703	
	0.302590	
	0.289104	
	0.272000	
	0.266902	
	0.262461	
	0.261968	
	0.262297	
	0.261968	
	0.257692	
	0.255718	
	0.254238	
	0.259008	
	0.264270	
	0.264106	
	0.272165	
	0.285979	0.058573
	0.293544	
	0.308839	
	0.327094	
	0.363934	
	0.420837	
	0.478563	
	0.535302	
	0.552570	
	0.572305	
	0.580857	
	0.590560	
	0.599441	
	0.609638	
	0.610954	
	0.621808	
	0.624275	
	0.627071	
	0.629044	
	0.620492	
	0.612105	
	0.609802	
	0.603882	
	0.603717	
	0.600922	
	0.601744	
	0.591054	
	0.571319	
	0.544347	
	0.415739	
	0.316898	
	0.300123	
	0.317227	
	0.278414	
	0.247824	
	0.238450	
	0.235490	
	0.232201	
	0.227431	
	0.240095	
	0.258350	
	0.271178	
	0.302425	
	0.332851	
	0.362125	
	0.388274	
	0.444026	
	0.528230	
	0.539413	
	0.555859	
	0.561122	
	0.571483	
	0.573785	
	0.591383	
	0.592863	
	0.601250	
	0.600593	
	0.601579	
	0.600593	
	0.603882	
	0.606020	
	0.615230	
	0.617203	
	0.620821	
	0.614243	
	0.599770	
	0.598784	
	0.595330	
	0.574114	
	0.483990	
	0.326108	
	0.278743	
	0.263613	
	0.254074	
	0.274138	
	0.296669	
	0.299136	
	0.298478	
	0.284170	
	0.281703	
	0.273480	
	0.251114	
	0.245357	
	0.254403	
	0.268546	
	0.284170	
	0.293873	
	0.310155	
	0.331206	
	0.438270	
	0.533822	
	0.582173	
	0.595494	
	0.611283	
	0.643188	
	0.664568	
	0.661772	
	0.661279	
	0.666377	
	0.652398	
	0.644339	0.048070
	0.654207	
	0.645819	
	0.634143	
	0.620328	
	0.605855	
	0.581351	
	0.538755	
	0.302754	
	0.238615	
	0.208683	
	0.193223	
	0.186809	
	0.185000	
	0.185165	
	0.186974	
	0.187796	
	0.189441	
	0.190592	
	0.197335	
	0.212959	
	0.226773	
	0.244042	
	0.264764	
	0.289104	
	0.319036	
	0.336962	
	0.380544	
	0.476425	
	0.535466	
	0.554379	
	0.574114	
	0.580035	
	0.596646	
	0.607993	
	0.616874	
	0.618519	
	0.617039	
	0.617697	
	0.613092	
	0.606020	
	0.594836	
	0.582009	
	0.557668	
	0.519020	
	0.501423	
	0.414423	
	0.331041	
	0.296669	
	0.268875	
	0.257363	
	0.251442	
	0.250291	
	0.245193	
	0.245029	
	0.242891	
	0.245029	
	0.246015	
	0.252265	
	0.260817	
	0.269862	
	0.279401	
	0.295847	
	0.313280	
	0.338936	
	0.386465	
	0.446657	
	0.530203	
	0.556024	
	0.577075	
	0.581844	
	0.588751	
	0.600428	
	0.607007	
	0.608487	
	0.613421	
	0.610625	
	0.612105	
	0.606842	
	0.603553	
	0.592205	
	0.585956	
	0.569181	
	0.548623	
	0.512935	
	0.462610	
	0.414423	
	0.352421	
	0.323805	
	0.297163	
	0.286308	
	0.270849	
	0.267724	
	0.261968	
	0.255718	
	0.253745	
	0.256212	
	0.254732	
	0.255390	
	0.265915	
	0.279730	0.055854
	0.293051	
	0.318707	
	0.340416	
	0.376268	
	0.417877	
	0.466228	
	0.534315	
	0.557833	
	0.584640	
	0.589574	
	0.602402	
	0.609309	
	0.619506	
	0.631182	
	0.633978	
	0.625920	
	0.622630	
	0.622466	
	0.616381	
	0.606020	
	0.598784	
	0.587600	
	0.568523	
	0.553392	
	0.528230	
	0.514909	
	0.359493	
	0.317062	
	0.322325	
	0.322654	
	0.314431	
	0.310484	
	0.297491	
	0.289433	
	0.294860	
	0.299629	
	0.292393	
	0.300616	
	0.329561	
	0.356368	
	0.395017	
	0.430705	
	0.485635	
	0.408502	
	0.310977	
	0.286473	
	0.311635	
	0.369690	
	0.524447	
	0.562767	
	0.599112	
	0.622959	
	0.636116	
	0.644668	
	0.653549	
	0.655194	
	0.648944	
	0.650918	
	0.661608	
	0.655194	
	0.650589	
	0.634800	
	0.613256	
	0.598455	
	0.569345	
	0.528394	
	0.345350	
	0.282032	
	0.242891	
	0.222333	
	0.208354	
	0.198651	
	0.193881	
	0.193881	
	0.193059	
	0.190592	
	0.191085	
	0.192566	
	0.201940	
	0.213452	
	0.219537	
	0.230720	
	0.245522	
	0.272987	
	0.317062	
	0.420179	
	0.543689	
	0.572799	
	0.604869	
	0.617039	
	0.629538	
	0.622630	
	0.615065	
	0.620163	
	0.617697	
	0.605362	
	0.591547	
	0.588751	
	0.581515	
	0.561122	0.062560
	0.564740	
	0.552570	
	0.539907	
	0.508824	
	0.441559	
	0.349132	
	0.319200	
	0.285157	
	0.255061	
	0.249633	
	0.238943	
	0.236312	
	0.231543	
	0.232036	
	0.234667	
	0.234996	
	0.246673	
	0.254732	
	0.266737	
	0.280059	
	0.293215	
	0.316898	
	0.331370	
	0.353573	
	0.423962	
	0.475602	
	0.512442	
	0.543854	
	0.568523	
	0.579542	
	0.591876	
	0.597961	
	0.602402	
	0.603388	
	0.604704	
	0.606349	
	0.605855	
	0.604869	
	0.604704	
	0.593850	
	0.587929	
	0.579377	
	0.566220	
	0.557833	
	0.539249	
	0.526256	
	0.468695	
	0.374952	
	0.329397	
	0.310484	
	0.303412	
	0.301274	
	0.294202	
	0.283677	
	0.280223	
	0.274796	
	0.266737	
	0.268382	
	0.281374	
	0.294696	
	0.284499	
	0.291406	
	0.305550	
	0.337949	
	0.382847	
	0.408502	
	0.448302	
	0.505370	
	0.555695	
	0.569510	
	0.577075	
	0.584475	
	0.597303	
	0.610789	
	0.615065	
	0.615394	
	0.610296	
	0.608158	
	0.595988	
	0.584147	
	0.578719	
	0.563260	
	0.542867	
	0.524776	
	0.513428	
	0.514086	
	0.487444	
	0.444684	
	0.405707	
	0.394852	
	0.385149	
	0.361467	
	0.360151	
	0.392714	
	0.521158	
	0.524283	
	0.538591	
	0.514580	
	0.445177	
	0.353737	0.059974
	0.362453	
	0.444026	
	0.509975	
	0.551583	
	0.569674	
	0.564082	
	0.533493	
	0.467873	
	0.474122	
	0.471655	
	0.487773	
	0.530203	
	0.563753	
	0.590889	
	0.592863	
	0.582995	
	0.563918	
	0.520500	
	0.471655	
	0.412450	
	0.413930	
	0.378242	
	0.347488	
	0.332851	
	0.296505	
	0.293709	
	0.279236	
	0.252923	
	0.243548	
	0.249798	
	0.260323	
	0.272165	
	0.270355	
	0.264764	
	0.257528	
	0.262626	
	0.266902	
	0.271178	
	0.289433	
	0.319365	
	0.317391	
	0.333837	
	0.381038	
	0.434816	
	0.500272	
	0.534644	
	0.569345	
	0.598126	
	0.619012	
	0.626906	
	0.627400	
	0.622630	
	0.624933	
	0.631018	
	0.628058	
	0.622466	
	0.617368	
	0.609802	
	0.604540	
	0.611940	
	0.596481	
	0.572305	
	0.552570	
	0.518691	
	0.424949	
	0.334824	
	0.318871	
	0.313444	
	0.294531	
	0.279401	
	0.272987	
	0.273151	
	0.264599	
	0.250291	
	0.243877	
	0.232036	
	0.223155	
	0.216412	
	0.218550	
	0.229569	
	0.236148	
	0.246509	
	0.266573	
	0.289433	
	0.321832	
	0.365249	
	0.502903	
	0.554873	
	0.570003	
	0.581680	
	0.585133	
	0.597303	
	0.606513	
	0.617861	
	0.619834	
	0.618190	
	0.613092	
	0.610296	
	0.603553	
	0.594508	0.080722
	0.588587	
	0.583489	
	0.570496	
	0.546649	
	0.504712	
	0.403898	
	0.339264	
	0.297820	
	0.270191	
	0.265093	
	0.261803	
	0.259830	
	0.254074	
	0.248318	
	0.251278	
	0.256212	
	0.267231	
	0.280059	
	0.293544	
	0.322818	
	0.334660	
	0.375281	
	0.496818	
	0.543031	
	0.548459	
	0.542867	
	0.563424	
	0.581022	
	0.590232	
	0.585627	
	0.588916	
	0.587271	
	0.590889	
	0.601744	
	0.602895	
	0.608816	
	0.611940	
	0.604375	
	0.593027	
	0.574443	
	0.565069	
	0.542045	
	0.513099	
	0.458334	
	0.345514	
	0.321174	
	0.315418	
	0.306701	
	0.284992	
	0.271178	
	0.261310	
	0.256376	
	0.257363	
	0.253909	
	0.258021	
	0.260817	
	0.268217	
	0.282690	
	0.293380	
	0.319529	
	0.360315	
	0.390083	
	0.502574	
	0.528723	
	0.554215	
	0.561944	
	0.566878	
	0.579377	
	0.591218	
	0.605033	
	0.617532	
	0.637432	
	0.652727	
	0.649931	
	0.635623	
	0.634472	
	0.637432	
	0.646642	
	0.644833	
	0.637761	
	0.632662	
	0.629044	
	0.613421	
	0.588094	
	0.540400	
	0.380051	
	0.284828	
	0.257199	
	0.243877	
	0.255061	
	0.263119	
	0.252758	
	0.235819	
	0.228582	
	0.239437	
	0.240424	
	0.239601	
	0.239437	
	0.238615	
	0.253580	0.050915
	0.263777	
	0.275618	
	0.283677	
	0.277427	
	0.282690	
	0.276769	
	0.278414	
	0.316569	
	0.434487	
	0.529874	
	0.557668	
	0.575266	
	0.592534	
	0.610296	
	0.616545	
	0.622795	
	0.630360	
	0.635787	
	0.637596	
	0.638747	
	0.633156	
	0.623124	
	0.612763	
	0.592370	
	0.569838	
	0.540564	
	0.508495	
	0.471984	
	0.365907	
	0.333837	
	0.290913	
	0.257034	
	0.231214	
	0.214110	
	0.221017	
	0.226116	
	0.236312	
	0.234339	
	0.238450	
	0.248976	
	0.265422	
	0.289104	
	0.297985	
	0.295847	
	0.315089	
	0.329726	
	0.349626	
	0.434487	
	0.499449	
	0.529546	
	0.550432	
	0.562273	
	0.577404	
	0.591218	
	0.596646	
	0.604869	
	0.600922	
	0.594508	
	0.585298	
	0.575759	
	0.568358	
	0.552735	
	0.541551	
	0.527079	
	0.500436	
	0.490404	
	0.419357	
	0.347981	
	0.314760	
	0.292229	
	0.279401	
	0.269533	
	0.268053	
	0.259666	
	0.260981	
	0.266244	
	0.273480	
	0.278578	
	0.273151	
	0.285979	
	0.298149	
	0.311964	
	0.326930	
	0.324627	
	0.350612	
	0.420344	
	0.531519	
	0.558655	
	0.582666	
	0.587929	
	0.593027	
	0.594836	
	0.599606	
	0.610789	
	0.611118	
	0.612105	
	0.609145	
	0.603882	
	0.602073	
	0.596810	0.051914
	0.591712	
	0.588916	
	0.577239	
	0.563096	
	0.546978	
	0.507014	
	0.365743	
	0.309333	
	0.293873	
	0.289597	
	0.285486	
	0.274138	
	0.278250	
	0.265751	
	0.293709	
	0.307030	
	0.311142	
	0.314924	
	0.326108	
	0.329232	
	0.323147	
	0.317556	
	0.341238	
	0.369196	
	0.393701	
	0.417877	
	0.377748	
	0.415410	
	0.545663	
	0.576417	
	0.589080	
	0.605033	
	0.611118	
	0.624110	
	0.630196	
	0.633485	
	0.634965	
	0.638747	
	0.632005	
	0.619999	
	0.610625	
	0.604211	
	0.591383	
	0.552241	
	0.515402	
	0.478234	
	0.342225	
	0.291078	
	0.280388	
	0.276605	
	0.266244	
	0.262626	
	0.261639	
	0.252758	
	0.258350	
	0.248647	
	0.249962	
	0.259666	
	0.250785	
	0.249798	
	0.248318	
	0.254074	
	0.265422	
	0.264928	
	0.279894	
	0.320516	
	0.422153	
	0.538591	
	0.568852	
	0.577568	
	0.589574	
	0.585627	
	0.572305	
	0.581844	
	0.586778	
	0.601415	
	0.606020	
	0.622137	
	0.632334	
	0.634143	
	0.637596	
	0.637925	
	0.637596	
	0.636116	
	0.629538	
	0.619177	
	0.612763	
	0.605197	
	0.598455	
	0.574772	
	0.479056	
	0.323147	
	0.277263	
	0.235654	
	0.233023	
	0.234667	
	0.239766	
	0.246344	
	0.251114	
	0.245686	0.068725
	0.225129	
	0.213288	
	0.222826	
	0.238779	
	0.258185	
	0.283348	
	0.296505	
	0.335317	
	0.418699	
	0.535795	
	0.561944	
	0.571319	
	0.574772	
	0.591218	
	0.607007	
	0.615394	
	0.609802	
	0.610954	
	0.617039	
	0.614901	
	0.607500	
	0.598455	
	0.580199	
	0.537933	
	0.395839	
	0.343540	
	0.325121	
	0.294367	
	0.281210	
	0.266244	
	0.253745	
	0.243219	
	0.240588	
	0.232036	
	0.235161	
	0.243219	
	0.250291	
	0.261639	
	0.263777	
	0.270027	
	0.274467	
	0.276276	
	0.293873	
	0.313444	
	0.344692	
	0.388109	
	0.453400	
	0.542045	
	0.567536	
	0.580528	
	0.594672	
	0.604869	
	0.606349	
	0.620821	
	0.622959	
	0.624439	
	0.609473	
	0.603224	
	0.601579	
	0.597139	
	0.589903	
	0.586120	
	0.566878	
	0.555366	
	0.525763	
	0.486292	
	0.387780	
	0.315747	
	0.290749	
	0.270684	
	0.260817	
	0.256705	
	0.259008	
	0.249469	
	0.251771	
	0.249962	
	0.257199	
	0.260817	
	0.266902	
	0.275454	
	0.283512	
	0.293544	
	0.334331	
	0.362947	
	0.442052	
	0.513264	
	0.544018	
	0.569674	
	0.583489	
	0.597303	
	0.603717	
	0.609802	
	0.613092	
	0.628058	
	0.630689	
	0.636938	
	0.636609	
	0.632991	
	0.631347	
	0.626906	0.055447
	0.610954	
	0.587436	
	0.550432	
	0.486950	
	0.336962	
	0.298478	
	0.278250	
	0.259994	
	0.251278	
	0.269533	
	0.283677	
	0.292722	
	0.298807	
	0.290255	
	0.298314	
	0.315582	
	0.333508	
	0.350777	
	0.351928	
	0.398141	
	0.410969	
	0.337620	
	0.320352	
	0.329232	
	0.390083	
	0.443862	
	0.479714	
	0.539084	
	0.538098	
	0.505863	
	0.533657	
	0.566056	
	0.587929	
	0.624275	
	0.630524	
	0.639405	
	0.641708	
	0.636774	
	0.619999	
	0.610460	
	0.606020	
	0.610131	
	0.601908	
	0.588916	
	0.567043	
	0.571319	
	0.547143	
	0.350941	
	0.283677	
	0.262626	
	0.267395	
	0.279565	
	0.280881	
	0.269533	
	0.274960	
	0.266408	
	0.264435	
	0.284499	
	0.291406	
	0.281703	
	0.263777	
	0.250949	
	0.262132	
	0.271836	
	0.276112	
	0.288940	
	0.323312	
	0.468531	
	0.526421	
	0.532835	
	0.532177	
	0.528723	
	0.515731	
	0.549281	
	0.571976	
	0.596317	
	0.603717	
	0.603388	
	0.604211	
	0.601086	
	0.597139	
	0.589903	
	0.587765	
	0.591383	
	0.583160	
	0.578226	
	0.576746	
	0.516389	
	0.378406	
	0.326437	
	0.322818	
	0.317556	
	0.329397	
	0.301932	
	0.297656	
	0.278578	
	0.284828	
	0.288611	
	0.285321	
	0.286637	0.050762
	0.284992	
	0.279236	
	0.283512	
	0.271178	
	0.250291	
	0.261968	
	0.298972	
	0.359987	
	0.504712	
	0.543854	
	0.560464	
	0.559642	
	0.551748	
	0.580857	
	0.594672	
	0.599441	
	0.595001	
	0.591218	
	0.581515	
	0.576910	
	0.564740	
	0.564411	
	0.542045	
	0.503396	
	0.418863	
	0.360480	
	0.333837	
	0.299958	
	0.288611	
	0.272165	
	0.264928	
	0.259994	
	0.254567	
	0.244535	
	0.252594	
	0.249469	
	0.254567	
	0.253745	
	0.259994	
	0.269533	
	0.281868	
	0.290749	
	0.316404	
	0.343705	
	0.414752	
	0.491884	
	0.519349	
	0.563096	
	0.576088	
	0.589245	
	0.587107	
	0.593521	
	0.599441	
	0.612598	
	0.611611	
	0.613914	
	0.608322	
	0.604046	
	0.596481	
	0.585627	
	0.573128	
	0.569016	
	0.553063	
	0.531026	
	0.486621	
	0.407845	
	0.359987	
	0.319529	
	0.297985	
	0.286966	
	0.290584	
	0.285979	
	0.282854	
	0.278414	
	0.291735	
	0.293215	
	0.301932	
	0.306372	
	0.322654	
	0.327259	
	0.342718	
	0.326765	
	0.354230	
	0.371005	
	0.424620	
	0.422317	
	0.412614	
	0.501258	
	0.510797	
	0.547307	
	0.577239	
	0.605197	
	0.620986	
	0.634965	
	0.638090	
	0.640228	
	0.637103	
	0.635458	
	0.629702	
	0.620657	0.057095
	0.617203	
	0.611611	
	0.593850	
	0.573785	
	0.541058	
	0.482510	
	0.371499	
	0.288117	
	0.252265	
	0.243219	
	0.242397	
	0.239766	
	0.236805	
	0.236477	
	0.255554	
	0.271342	
	0.306043	
	0.321667	
	0.313773	
	0.315089	
	0.325943	
	0.322818	
	0.379722	
	0.529710	
	0.553557	
	0.547801	
	0.547801	
	0.570990	
	0.578226	
	0.576910	
	0.566714	
	0.573621	
	0.605526	
	0.630360	
	0.619999	
	0.612927	
	0.615394	
	0.603717	
	0.587107	
	0.580693	
	0.566878	
	0.560793	
	0.535960	
	0.509317	
	0.501916	
	0.535302	
	0.556517	
	0.533493	
	0.471655	
	0.322325	
	0.271013	
	0.246838	
	0.247989	
	0.242891	
	0.247166	
	0.245029	
	0.251607	
	0.253745	
	0.256705	
	0.266408	
	0.275289	
	0.271178	
	0.300452	
	0.331370	
	0.367223	
	0.495831	
	0.560629	
	0.589738	
	0.600264	
	0.607500	
	0.620163	
	0.640721	
	0.645161	
	0.644833	
	0.632498	
	0.620986	
	0.584311	
	0.556188	
	0.537275	
	0.541716	
	0.528723	
	0.538920	
	0.517704	
	0.510304	
	0.453071	
	0.417219	
	0.376762	
	0.337784	
	0.306537	
	0.270355	
	0.249304	
	0.233845	
	0.229898	
	0.229405	
	0.232201	
	0.237957	
	0.247002	
	0.244042	
	0.235654	
	0.240917	0.050300
	0.253416	
	0.262790	
	0.280223	
	0.302754	
	0.332686	
	0.371992	
	0.448795	
	0.535137	
	0.556517	
	0.572305	
	0.579542	
	0.588422	
	0.598455	
	0.612269	
	0.612598	
	0.619177	
	0.619670	
	0.620821	
	0.615559	
	0.603224	
	0.595494	
	0.595494	
	0.574114	
	0.547143	
	0.506521	
	0.449289	
	0.360315	
	0.309497	
	0.294038	
	0.280881	
	0.274631	
	0.263613	
	0.260323	
	0.244535	
	0.248811	
	0.247495	
	0.258350	
	0.265257	
	0.272000	
	0.280388	
	0.281210	
	0.271671	
	0.279401	
	0.294202	
	0.323970	
	0.347488	
	0.376268	
	0.515402	
	0.553721	
	0.581186	
	0.593356	
	0.600099	
	0.601744	
	0.613092	
	0.611447	
	0.617039	
	0.612269	
	0.611118	
	0.603224	
	0.598948	
	0.587436	
	0.578884	
	0.569510	
	0.577568	
	0.574443	
	0.560135	
	0.546978	
	0.469846	
	0.395675	
	0.345678	
	0.343869	
	0.332522	
	0.342389	
	0.347323	
	0.464748	
	0.387945	
	0.354724	
	0.342389	
	0.355053	
	0.413601	
	0.534808	
	0.549281	
	0.543689	
	0.509975	
	0.543854	
	0.558984	
	0.548952	
	0.555201	
	0.545498	
	0.541880	
	0.547801	
	0.571319	
	0.574772	
	0.578226	
	0.531684	
	0.498298	
	0.424291	
	0.484319	
	0.525105	
	0.546649	0.061414
	0.533164	
	0.509481	
	0.405378	
	0.367881	
	0.344198	
	0.319036	
	0.303905	
	0.282197	
	0.280388	
	0.275125	
	0.268875	
	0.262626	
	0.259994	
	0.249469	
	0.259501	
	0.265915	
	0.271507	
	0.287130	
	0.310319	
	0.305386	
	0.312951	
	0.332193	
	0.381695	
	0.487608	
	0.532012	
	0.571976	
	0.584640	
	0.596646	
	0.603224	
	0.621644	
	0.632662	
	0.638747	
	0.642037	
	0.645490	
	0.626577	
	0.601415	
	0.564905	
	0.545992	
	0.530697	
	0.449453	
	0.383998	
	0.456361	
	0.385313	
	0.333508	
	0.310319	
	0.303741	
	0.301932	
	0.297820	
	0.306208	
	0.293544	
	0.276441	
	0.261310	
	0.254567	
	0.243713	
	0.248318	
	0.244042	
	0.247495	
	0.247495	
	0.245522	
	0.254403	
	0.270520	
	0.282854	
	0.302096	
	0.319365	
	0.372321	
	0.487937	
	0.524941	
	0.562767	
	0.568687	
	0.571812	
	0.581351	
	0.593027	
	0.601415	
	0.607335	
	0.602731	
	0.602402	
	0.604211	
	0.609802	
	0.614901	
	0.611611	
	0.611940	
	0.609309	
	0.598290	
	0.583160	
	0.562273	
	0.549610	
	0.544511	
	0.493200	
	0.362453	
	0.304563	
	0.281703	
	0.267724	
	0.260159	
	0.245357	
	0.256541	
	0.268217	
	0.291900	
	0.321338	
	0.412450	
	0.551090	0.114066
	0.581351	
	0.589080	
	0.603717	
	0.617697	
	0.632991	
	0.636281	
	0.631347	
	0.634143	
	0.630524	
	0.632662	
	0.613421	
	0.580364	
	0.529381	
	0.485799	
	0.355711	
	0.337949	
	0.335482	
	0.334166	
	0.326930	
	0.312457	
	0.299794	
	0.304563	
	0.306372	
	0.307359	
	0.296176	
	0.290913	
	0.280881	
	0.267560	
	0.263777	
	0.256705	
	0.254896	
	0.248647	
	0.243219	
	0.238450	
	0.237134	
	0.234174	
	0.244700	
	0.250127	
	0.254732	
	0.261310	
	0.262790	
	0.270027	
	0.287624	
	0.314760	
	0.355382	
	0.469517	
	0.529874	
	0.568358	
	0.579871	
	0.595659	
	0.603717	
	0.607664	
	0.609638	
	0.617532	
	0.622466	
	0.625591	
	0.628386	
	0.624110	
	0.619012	
	0.601744	
	0.570825	
	0.542209	
	0.524283	
	0.539742	
	0.539413	
	0.505863	
	0.462446	
	0.348803	
	0.300287	
	0.271178	
	0.262461	
	0.251442	
	0.247660	
	0.240588	
	0.243384	
	0.246344	
	0.256047	
	0.264270	
	0.272165	
	0.283512	
	0.325614	
	0.419028	
	0.541058	
	0.573457	
	0.599441	
	0.611776	
	0.616710	
	0.631018	
	0.640392	
	0.650918	
	0.652233	
	0.653384	
	0.643681	
	0.643517	
	0.626742	
	0.600428	
	0.570661	
	0.557997	
	0.552735	
	0.555695	0.059590
	0.545334	
	0.474122	
	0.318871	
	0.274303	
	0.254732	
	0.251114	
	0.253416	
	0.252758	
	0.253580	
	0.235654	
	0.238615	
	0.251771	
	0.262297	
	0.262790	
	0.259337	
	0.256541	
	0.263448	
	0.270849	
	0.273645	
	0.277427	
	0.294202	
	0.288282	
	0.317391	
	0.357191	
	0.449124	
	0.507508	
	0.528559	
	0.565562	
	0.571976	
	0.579377	
	0.583653	
	0.590889	
	0.598619	
	0.609309	
	0.596317	
	0.592863	
	0.597303	
	0.607829	
	0.610131	
	0.608487	
	0.600428	
	0.597961	
	0.590889	
	0.582666	
	0.563424	
	0.536946	
	0.517704	
	0.497476	
	0.480865	
	0.392385	
	0.348474	
	0.333673	
	0.332357	
	0.299301	
	0.287459	
	0.298478	
	0.308675	
	0.303083	
	0.293544	
	0.303248	
	0.326272	
	0.316898	
	0.326765	
	0.360809	
	0.369361	
	0.356204	
	0.377584	
	0.390412	
	0.364098	
	0.477247	
	0.520994	
	0.564082	
	0.575430	
	0.591712	
	0.601086	
	0.613749	
	0.612269	
	0.611283	
	0.620821	
	0.618354	
	0.601579	
	0.576910	
	0.551254	
	0.545169	
	0.492706	
	0.379228	
	0.338278	
	0.290749	
	0.273151	
	0.248647	
	0.238779	
	0.232365	
	0.234339	
	0.231872	
	0.226938	
	0.228747	
	0.234832	
	0.240917	
	0.247989	
	0.259337	0.087776
	0.271836	
	0.283677	
	0.297327	
	0.324463	
	0.359329	
	0.394030	
	0.483168	
	0.534973	
	0.552077	
	0.577075	
	0.578555	
	0.586778	
	0.595659	
	0.609802	
	0.615723	
	0.621479	
	0.620986	
	0.628715	
	0.630689	
	0.630689	
	0.624110	
	0.622301	
	0.612927	
	0.604375	
	0.604375	
	0.599770	
	0.601250	
	0.595001	
	0.593356	
	0.592863	
	0.592863	
	0.587271	
	0.568194	
	0.560464	
	0.546978	
	0.492377	
	0.330548	
	0.270849	
	0.236805	
	0.211807	
	0.200460	
	0.199308	
	0.206380	
	0.220195	
	0.227925	
	0.229569	
	0.246673	
	0.295518	
	0.436461	
	0.543525	
	0.569181	
	0.586285	
	0.586778	
	0.596646	
	0.599112	
	0.608487	
	0.608651	
	0.602566	
	0.606020	
	0.597139	
	0.578884	
	0.584804	
	0.587600	
	0.589409	
	0.585462	
	0.576088	
	0.542867	
	0.467708	
	0.363440	
	0.328575	
	0.314102	
	0.297985	
	0.292558	
	0.268711	
	0.264270	
	0.249633	
	0.236148	
	0.229405	
	0.230720	
	0.242068	
	0.272165	
	0.294367	
	0.311306	
	0.303577	
	0.306043	
	0.316404	
	0.343705	
	0.403898	
	0.520665	
	0.566549	
	0.579213	
	0.595330	
	0.613092	
	0.633485	
	0.649437	
	0.660456	
	0.658154	
	0.650589	
	0.653220	
	0.649602	0.046531
	0.636281	
	0.622630	
	0.619670	
	0.610296	
	0.589080	
	0.547472	
	0.497805	
	0.358835	
	0.287624	
	0.258514	
	0.250127	
	0.248482	
	0.252758	
	0.244371	
	0.229569	
	0.208518	
	0.203913	
	0.210985	
	0.214768	
	0.208847	
	0.207531	
	0.211972	
	0.230556	
	0.255554	
	0.286144	
	0.319365	
	0.360644	
	0.452742	
	0.501587	
	0.545005	
	0.564576	
	0.569016	
	0.560464	
	0.574443	
	0.591876	
	0.601415	
	0.594179	
	0.594508	
	0.595823	
	0.586942	
	0.581844	
	0.572305	
	0.567700	
	0.562273	
	0.548294	
	0.532670	
	0.511126	
	0.441395	
	0.376104	
	0.329561	
	0.311964	
	0.296669	
	0.288282	
	0.281539	
	0.278250	
	0.294367	
	0.314431	
	0.332686	
	0.345678	
	0.358013	
	0.347159	
	0.327752	
	0.342060	
	0.381531	
	0.390576	
	0.362453	
	0.395510	
	0.532341	
	0.547801	
	0.576088	
	0.604540	
	0.612927	
	0.619177	
	0.633978	
	0.640063	
	0.646477	
	0.649602	
	0.645655	
	0.636116	
	0.631511	
	0.613256	
	0.584147	
	0.541222	
	0.494680	
	0.416561	
	0.403733	
	0.371170	
	0.317391	
	0.300123	
	0.295518	
	0.295353	
	0.294696	
	0.291078	
	0.278250	
	0.264599	
	0.263119	
	0.269533	
	0.268546	
	0.271013	
	0.281374	0.069644
	0.292558	
	0.279894	
	0.288775	
	0.315747	
	0.317720	
	0.307359	
	0.307359	
	0.334660	
	0.438105	
	0.541880	
	0.563096	
	0.580035	
	0.584311	
	0.592698	
	0.596152	
	0.599112	
	0.588422	
	0.592863	
	0.598290	
	0.590889	
	0.573292	
	0.560958	
	0.551748	
	0.526914	
	0.408174	
	0.338442	
	0.326272	
	0.302261	
	0.284499	
	0.271671	
	0.263448	
	0.256705	
	0.254896	
	0.256047	
	0.254896	
	0.255554	
	0.251771	
	0.256541	
	0.261146	
	0.275289	
	0.292064	
	0.283512	
	0.295847	
	0.320352	
	0.421001	
	0.536288	
	0.538755	
	0.536124	
	0.531026	
	0.552899	
	0.573457	
	0.593850	
	0.607664	
	0.619834	
	0.622301	
	0.620986	
	0.612598	
	0.610460	
	0.605855	
	0.603060	
	0.596974	
	0.595823	
	0.576417	
	0.562273	
	0.467544	
	0.316404	
	0.303577	
	0.299301	
	0.322490	
	0.325943	
	0.349297	
	0.369361	
	0.382024	
	0.358342	
	0.343869	
	0.337620	
	0.352421	
	0.370841	
	0.338771	
	0.315089	
	0.301603	
	0.319858	
	0.318214	
	0.307195	
	0.283348	
	0.259666	
	0.253252	
	0.271671	
	0.306701	
	0.368374	
	0.512606	
	0.555530	
	0.569838	
	0.589574	
	0.600264	
	0.600593	
	0.594672	
	0.598290	
	0.603717	
	0.600757	0.085803
	0.596646	
	0.589574	
	0.578226	
	0.564740	
	0.542045	
	0.467379	
	0.345678	
	0.305386	
	0.292229	
	0.279401	
	0.282361	
	0.285815	
	0.301932	
	0.336633	
	0.357026	
	0.454880	
	0.523132	
	0.563589	
	0.602237	
	0.619012	
	0.623617	
	0.628222	
	0.632498	
	0.628058	
	0.620163	
	0.609473	
	0.565234	
	0.539084	
	0.568194	
	0.598126	
	0.607993	
	0.596317	
	0.588258	
	0.580693	
	0.598619	
	0.601579	
	0.584311	
	0.558655	
	0.462610	
	0.361138	
	0.333015	
	0.316898	
	0.300945	
	0.297985	
	0.292393	
	0.284664	
	0.272165	
	0.263941	
	0.256212	
	0.250949	
	0.241575	
	0.230885	
	0.226116	
	0.220688	
	0.216741	
	0.222168	
	0.222168	
	0.227267	
	0.229734	
	0.235161	
	0.248482	
	0.258679	
	0.267231	
	0.280388	
	0.301932	
	0.343705	
	0.374130	
	0.431691	
	0.507343	
	0.544511	
	0.560464	
	0.586449	
	0.592534	
	0.596317	
	0.605033	
	0.609638	
	0.610789	
	0.610131	
	0.603224	
	0.600922	
	0.590889	
	0.578555	
	0.570825	
	0.550761	
	0.539742	
	0.492542	
	0.470340	
	0.408996	
	0.346665	
	0.313444	
	0.308017	
	0.290420	
	0.288282	
	0.281703	
	0.270027	
	0.271507	
	0.277592	
	0.301439	
	0.325614	
	0.354724	0.093925
	0.457183	
	0.497640	
	0.500107	
	0.523954	
	0.553557	
	0.563096	
	0.566385	
	0.588258	
	0.595494	
	0.608651	
	0.616545	
	0.618190	
	0.619834	
	0.617532	
	0.608158	
	0.606349	
	0.604869	
	0.606513	
	0.602237	
	0.593521	
	0.585133	
	0.565069	
	0.516224	
	0.396826	
	0.356862	
	0.312951	
	0.305057	
	0.306537	
	0.300287	
	0.305221	
	0.278743	
	0.256705	
	0.241410	
	0.233187	
	0.225951	
	0.229405	
	0.234174	
	0.239930	
	0.245686	
	0.248318	
	0.263777	
	0.276769	
	0.279072	
	0.290091	
	0.311142	
	0.336140	
	0.386794	
	0.491226	
	0.550432	
	0.576581	
	0.593521	
	0.604046	
	0.607829	
	0.610460	
	0.616545	
	0.620492	
	0.629044	
	0.629702	
	0.631182	
	0.631511	
	0.627071	
	0.624275	
	0.611447	
	0.588258	
	0.551583	
	0.447644	
	0.322654	
	0.302096	
	0.288775	
	0.280059	
	0.281374	
	0.278250	
	0.272987	
	0.266902	
	0.264599	
	0.283512	
	0.293380	
	0.300287	
	0.305386	
	0.309662	
	0.333508	
	0.333508	
	0.302754	
	0.293544	
	0.288611	
	0.294696	
	0.307030	
	0.316404	
	0.315253	
	0.342883	
	0.418535	
	0.517869	
	0.553557	
	0.567700	
	0.587929	
	0.590560	
	0.593521	
	0.589245	
	0.593027	
	0.589738	0.104059
	0.582009	
	0.570990	
	0.562438	
	0.552077	
	0.528065	
	0.473464	
	0.419028	
	0.375117	
	0.329726	
	0.301603	
	0.293051	
	0.278085	
	0.271342	
	0.268546	
	0.259172	
	0.265751	
	0.268875	
	0.271013	
	0.277263	
	0.280059	
	0.297491	
	0.316733	
	0.330219	
	0.407351	
	0.495996	
	0.551912	
	0.571154	
	0.595330	
	0.611940	
	0.619506	
	0.617861	
	0.620986	
	0.632169	
	0.636609	
	0.636281	
	0.622795	
	0.604375	
	0.595494	
	0.601908	
	0.609473	
	0.605197	
	0.615887	
	0.620657	
	0.622301	
	0.630031	
	0.628386	
	0.629538	
	0.620328	
	0.613256	
	0.611118	
	0.597139	
	0.585462	
	0.577239	
	0.528230	
	0.291078	
	0.233187	
	0.204407	
	0.204900	
	0.209012	
	0.211314	
	0.225458	
	0.241904	
	0.246838	
	0.249469	
	0.255061	
	0.279401	
	0.304892	
	0.323312	
	0.385149	
	0.556188	
	0.581515	
	0.586120	
	0.585462	
	0.583160	
	0.579706	
	0.575430	
	0.564576	
	0.546485	
	0.561451	
	0.572305	
	0.561122	
	0.539249	
	0.512442	
	0.401595	
	0.345185	
	0.313444	
	0.294531	
	0.277592	
	0.275947	
	0.281539	
	0.281539	
	0.283183	
	0.296011	
	0.302096	
	0.285486	
	0.273809	
	0.271342	
	0.272822	
	0.276605	
	0.304070	0.079740
	0.325943	
	0.366894	
	0.427415	
	0.535137	
	0.553886	
	0.550103	
	0.543031	
	0.518198	
	0.525927	
	0.545498	
	0.531355	
	0.500272	
	0.367552	
	0.333344	
	0.437612	
	0.494844	
	0.535302	
	0.543360	
	0.561122	
	0.570661	
	0.569016	
	0.565398	
	0.555037	
	0.540400	
	0.500929	
	0.426922	
	0.363111	
	0.335646	
	0.301767	
	0.285979	
	0.289104	
	0.280716	
	0.268546	
	0.257692	
	0.243548	
	0.244206	
	0.238121	
	0.241904	
	0.245357	
	0.250949	
	0.259994	
	0.268711	
	0.275618	
	0.299465	
	0.327423	
	0.396661	
	0.532341	
	0.561122	
	0.572305	
	0.588916	
	0.597961	
	0.601415	
	0.604211	
	0.605691	
	0.609638	
	0.611283	
	0.612927	
	0.610460	
	0.612269	
	0.608651	
	0.598455	
	0.594836	
	0.590889	
	0.579871	
	0.562109	
	0.545663	
	0.528065	
	0.482510	
	0.370019	
	0.325943	
	0.317556	
	0.320845	
	0.312622	
	0.296340	
	0.272822	
	0.272493	
	0.265257	
	0.269533	
	0.269369	
	0.277756	
	0.283348	
	0.281703	
	0.284499	
	0.307524	
	0.330877	
	0.370841	
	0.407351	
	0.510961	
	0.555366	
	0.568358	
	0.584804	
	0.593027	
	0.603224	
	0.609638	
	0.623617	
	0.623946	
	0.627893	
	0.626906	
	0.631511	
	0.641050	0.089260
	0.656345	
	0.662594	
	0.659141	
	0.657825	
	0.661772	
	0.662101	
	0.657167	
	0.657496	
	0.644668	
	0.626906	
	0.614243	
	0.594836	
	0.564740	
	0.522309	
	0.325450	
	0.297820	
	0.269204	
	0.271836	
	0.261803	
	0.250127	
	0.255061	
	0.245686	
	0.245686	
	0.263284	
	0.290420	
	0.296505	
	0.292229	
	0.310648	
	0.322161	
	0.330219	
	0.326601	
	0.314266	
	0.337455	
	0.491720	
	0.547472	
	0.505041	
	0.374788	
	0.344527	
	0.335811	
	0.312293	
	0.296505	
	0.310648	
	0.317556	
	0.278743	
	0.272165	
	0.268875	
	0.268053	
	0.264106	
	0.253252	
	0.252265	
	0.250785	
	0.250456	
	0.261968	
	0.282854	
	0.281868	
	0.286473	
	0.282690	
	0.293544	
	0.315911	
	0.312293	
	0.320187	
	0.323641	
	0.338771	
	0.389096	
	0.512606	
	0.551090	
	0.585956	
	0.600099	
	0.614078	
	0.612105	
	0.600922	
	0.589080	
	0.593685	
	0.582502	
	0.581022	
	0.574114	
	0.588916	
	0.600264	
	0.601744	
	0.595988	
	0.575923	
	0.531355	
	0.337949	
	0.279401	
	0.290913	
	0.314924	
	0.312951	
	0.309826	
	0.289762	
	0.273974	
	0.263284	
	0.261475	
	0.263284	
	0.263284	
	0.247660	
	0.249633	
	0.244700	
	0.243384	
	0.252923	
	0.260981	0.114966
	0.275125	
	0.277921	
	0.285157	
	0.306537	
	0.329561	
	0.385149	
	0.463103	
	0.510961	
	0.550103	
	0.571812	
	0.582831	
	0.594508	
	0.601250	
	0.604869	
	0.615559	
	0.616052	
	0.617039	
	0.611118	
	0.607007	
	0.601250	
	0.590560	
	0.577568	
	0.576746	
	0.569016	
	0.564576	
	0.549281	
	0.522309	
	0.491555	
	0.367223	
	0.330219	
	0.308675	
	0.299465	
	0.290913	
	0.278907	
	0.260652	
	0.261310	
	0.255883	
	0.254238	
	0.256541	
	0.264599	
	0.283348	
	0.321996	
	0.350119	
	0.440408	
	0.505863	
	0.536782	
	0.568358	
	0.578719	
	0.588258	
	0.598619	
	0.605362	
	0.599606	
	0.590725	
	0.595823	
	0.610131	
	0.610296	
	0.606184	
	0.611611	
	0.618025	
	0.625097	
	0.620986	
	0.602073	
	0.595494	
	0.589738	
	0.587107	
	0.583818	
	0.574937	
	0.545992	
	0.504383	
	0.520007	
	0.551419	
	0.529546	
	0.354230	
	0.294531	
	0.263119	
	0.264106	
	0.273809	
	0.288117	
	0.308017	
	0.384820	
	0.394359	
	0.306043	
	0.301439	
	0.340251	
	0.376597	
	0.449289	
	0.491062	
	0.495173	
	0.522638	
	0.546321	
	0.561451	
	0.588258	
	0.625920	
	0.648451	
	0.658976	
	0.659305	
	0.655522	
	0.648286	
	0.642201	
	0.637103	0.083853
	0.625755	
	0.614572	
	0.627400	
	0.618025	
	0.597632	
	0.566714	
	0.452742	
	0.273974	
	0.225458	
	0.207696	
	0.198322	
	0.195032	
	0.201117	
	0.206545	
	0.200131	
	0.200295	
	0.197006	
	0.195197	
	0.195361	
	0.196019	
	0.197170	
	0.201940	
	0.215261	
	0.230063	
	0.241904	
	0.257363	
	0.282854	
	0.302754	
	0.333508	
	0.405378	
	0.527572	
	0.564247	
	0.585462	
	0.590560	
	0.600922	
	0.614078	
	0.630689	
	0.629044	
	0.626742	
	0.621972	
	0.614572	
	0.610296	
	0.610296	
	0.605855	
	0.601744	
	0.586449	
	0.567700	
	0.519513	
	0.312951	
	0.286473	
	0.280388	
	0.281374	
	0.276605	
	0.273480	
	0.259337	
	0.258514	
	0.256212	
	0.266902	
	0.278085	
	0.296669	
	0.291242	
	0.303083	
	0.324134	
	0.486950	
	0.526092	
	0.457347	
	0.328081	
	0.312951	
	0.341238	
	0.350448	
	0.405707	
	0.512771	
	0.553557	
	0.568852	
	0.590067	
	0.593027	
	0.598455	
	0.591876	
	0.587436	
	0.582009	
	0.574608	
	0.555366	
	0.544840	
	0.507343	
	0.495502	
	0.435145	
	0.418041	
	0.383340	
	0.327588	
	0.315582	
	0.302096	
	0.300123	
	0.291406	
	0.291242	
	0.273809	
	0.274138	
	0.271671	
	0.277921	
	0.280059	
	0.274796	0.064260
	0.283512	
	0.299629	
	0.308017	
	0.337949	
	0.368867	
	0.455538	
	0.521980	
	0.532012	
	0.551090	
	0.560958	
	0.579542	
	0.581515	
	0.590725	
	0.585956	
	0.600757	
	0.601086	
	0.603882	
	0.601415	
	0.598784	
	0.600593	
	0.594343	
	0.586613	
	0.581680	
	0.563753	
	0.553063	
	0.545992	
	0.538591	
	0.533822	
	0.489088	
	0.426758	
	0.349954	
	0.328739	
	0.317062	
	0.322818	
	0.314266	
	0.360809	
	0.372814	
	0.392221	
	0.421166	
	0.520500	
	0.549774	
	0.552570	
	0.546485	
	0.556682	
	0.581844	
	0.604869	
	0.602073	
	0.592370	
	0.588751	
	0.581022	
	0.568852	
	0.550268	
	0.554708	
	0.561451	
	0.596646	
	0.596317	
	0.602731	
	0.600428	
	0.577733	
	0.524612	
	0.453894	
	0.460637	
	0.532835	
	0.556024	
	0.578719	
	0.570496	
	0.530039	
	0.492377	
	0.331206	
	0.309168	
	0.328081	
	0.344527	
	0.416068	
	0.508824	
	0.432514	
	0.508495	
	0.526914	
	0.545663	
	0.555695	
	0.537440	
	0.408174	
	0.373308	
	0.366894	
	0.397484	
	0.476918	
	0.486950	
	0.440901	
	0.342389	
	0.357520	
	0.425442	
	0.563424	
	0.579377	
	0.557833	
	0.524118	
	0.546485	
	0.572799	
	0.586285	
	0.568852	
	0.497969	
	0.342718	0.084274
	0.296011	
	0.277592	
	0.283348	
	0.277098	
	0.268382	
	0.258021	
	0.253909	
	0.250785	
	0.237299	
	0.233187	
	0.223813	
	0.232036	
	0.247660	
	0.254403	
	0.251771	
	0.257363	
	0.253909	
	0.259501	
	0.262790	
	0.265751	
	0.265751	
	0.268546	
	0.264106	
	0.266902	
	0.286308	
	0.327752	
	0.443533	
	0.537440	
	0.569016	
	0.581351	
	0.593521	
	0.591712	
	0.595659	
	0.597139	
	0.614243	
	0.612927	
	0.615394	
	0.610954	
	0.611776	
	0.618354	
	0.622301	
	0.621315	
	0.621808	
	0.611118	
	0.594508	
	0.562438	
	0.499614	
	0.388603	
	0.328081	
	0.298807	
	0.265751	
	0.256705	
	0.250291	
	0.251114	
	0.243548	
	0.251607	
	0.256376	
	0.260323	
	0.251771	
	0.248153	
	0.250785	
	0.261803	
	0.268382	
	0.288282	
	0.314924	
	0.354066	
	0.392221	
	0.477412	
	0.538755	
	0.559806	
	0.580035	
	0.589738	
	0.598784	
	0.598455	
	0.608487	
	0.604704	
	0.611776	
	0.607335	
	0.603717	
	0.600099	
	0.595494	
	0.585462	
	0.579377	
	0.568358	
	0.552570	
	0.526256	
	0.510633	
	0.463926	
	0.358671	
	0.334824	
	0.310319	
	0.299136	
	0.292393	
	0.286144	
	0.264928	
	0.264106	
	0.261475	
	0.268382	
	0.276605	
	0.283512	0.071037
	0.296834	
	0.325943	
	0.388932	
	0.530203	
	0.554050	
	0.580693	
	0.601250	
	0.614243	
	0.627729	
	0.626413	
	0.628551	
	0.631840	
	0.640721	
	0.639405	
	0.643023	
	0.629867	
	0.626413	
	0.625262	
	0.610460	
	0.599441	
	0.594836	
	0.593521	
	0.588587	
	0.556517	
	0.510633	
	0.331041	
	0.260652	
	0.247824	
	0.241081	
	0.239108	
	0.238779	
	0.243219	
	0.246509	
	0.252100	
	0.252923	
	0.260652	
	0.262132	
	0.277756	
	0.307688	
	0.324463	
	0.352750	
	0.496489	
	0.555366	
	0.600099	
	0.618354	
	0.637925	
	0.648615	
	0.654371	
	0.667528	
	0.664074	
	0.651082	
	0.645819	
	0.647135	
	0.649766	
	0.639734	
	0.592370	
	0.364591	
	0.246838	
	0.224306	
	0.229569	
	0.229898	
	0.234339	
	0.235654	
	0.217564	
	0.231707	
	0.255718	
	0.274796	
	0.307853	
	0.302096	
	0.302425	
	0.316404	
	0.318707	
	0.314102	
	0.334331	
	0.321832	
	0.301603	
	0.306537	
	0.349954	
	0.540236	
	0.537440	
	0.488759	
	0.537604	
	0.524941	
	0.513757	
	0.447151	
	0.437119	
	0.347488	
	0.296340	
	0.284170	
	0.290913	
	0.325450	
	0.355875	
	0.443862	
	0.473136	
	0.462939	
	0.350941	
	0.407351	
	0.365578	
	0.365578	
	0.486128	0.119665
	0.506357	
	0.527736	
	0.552899	
	0.548623	
	0.563424	
	0.576417	
	0.578719	
	0.585627	
	0.563918	
	0.496982	
	0.345678	
	0.315089	
	0.305057	
	0.296834	
	0.271013	
	0.254732	
	0.243548	
	0.231378	
	0.232529	
	0.232858	
	0.234503	
	0.233845	
	0.230885	
	0.241246	
	0.265093	
	0.285979	
	0.314595	
	0.359164	
	0.509646	
	0.545169	
	0.564247	
	0.575266	
	0.583818	
	0.589738	
	0.604540	
	0.603388	
	0.606513	
	0.602895	
	0.605197	
	0.600922	
	0.593850	
	0.585298	
	0.578390	
	0.563589	
	0.556353	
	0.534973	
	0.514251	
	0.499285	
	0.392056	
	0.345514	
	0.316404	
	0.303248	
	0.291078	
	0.282197	
	0.265751	
	0.262626	
	0.257856	
	0.261475	
	0.265751	
	0.270191	
	0.281539	
	0.299301	
	0.306537	
	0.331206	
	0.345021	
	0.383176	
	0.482839	
	0.506850	
	0.551090	
	0.568029	
	0.583982	
	0.592534	
	0.595494	
	0.599935	
	0.615394	
	0.612269	
	0.616545	
	0.612763	
	0.608158	
	0.605691	
	0.597797	
	0.593685	
	0.585133	
	0.570167	
	0.560464	
	0.541222	
	0.518856	
	0.489253	
	0.356368	
	0.337127	
	0.303905	
	0.304563	
	0.296505	
	0.291735	
	0.275947	
	0.277921	
	0.276441	
	0.279401	
	0.285321	
	0.301932	0.123952
	0.374624	
	0.535466	
	0.554050	
	0.593685	
	0.596481	
	0.612434	
	0.631840	
	0.638090	
	0.640392	
	0.644833	
	0.649931	
	0.656509	
	0.658647	
	0.661443	
	0.660950	
	0.635952	
	0.616052	
	0.612598	
	0.609473	
	0.603553	
	0.582009	
	0.535631	
	0.534644	
	0.531190	
	0.540236	
	0.507837	
	0.384327	
	0.334824	
	0.288775	
	0.270684	
	0.256705	
	0.249633	
	0.231049	
	0.221182	
	0.216906	
	0.217235	
	0.215426	
	0.213123	
	0.216248	
	0.228747	
	0.237792	
	0.238286	
	0.237628	
	0.251278	
	0.266902	
	0.280388	
	0.290749	
	0.294531	
	0.321503	
	0.371499	
	0.536124	
	0.564082	
	0.581844	
	0.596974	
	0.612105	
	0.617039	
	0.618190	
	0.602402	
	0.597468	
	0.590725	
	0.588751	
	0.580693	
	0.570496	
	0.542373	
	0.503067	
	0.390741	
	0.329726	
	0.311306	
	0.288940	
	0.276112	
	0.259501	
	0.257363	
	0.258843	
	0.261639	
	0.251442	
	0.251114	
	0.250456	
	0.255390	
	0.257692	
	0.262461	
	0.270027	
	0.277098	
	0.287295	
	0.301603	
	0.316404	
	0.345185	
	0.386136	
	0.448795	
	0.535466	
	0.556024	
	0.574772	
	0.578884	
	0.585791	
	0.593027	
	0.601908	
	0.606678	
	0.613256	
	0.610296	
	0.605691	
	0.602895	0.063097
	0.596810	
	0.587929	
	0.581515	
	0.566056	
	0.550761	
	0.539084	
	0.504548	
	0.467873	
	0.368210	
	0.327588	
	0.298314	
	0.294531	
	0.284828	
	0.288282	
	0.273974	
	0.271836	
	0.265586	
	0.271836	
	0.271178	
	0.272493	
	0.280388	
	0.295682	
	0.297327	
	0.320352	
	0.345350	
	0.395510	
	0.445506	
	0.470340	
	0.501752	
	0.522638	
	0.556517	
	0.572634	
	0.587929	
	0.595988	
	0.607829	
	0.610625	
	0.613749	
	0.611940	
	0.610954	
	0.610625	
	0.602731	
	0.593356	
	0.588094	
	0.573457	
	0.556682	
	0.527572	
	0.482839	
	0.410969	
	0.324956	
	0.308346	
	0.290420	
	0.279072	
	0.271342	
	0.273151	
	0.263119	
	0.258185	
	0.254567	
	0.255061	
	0.257856	
	0.261639	
	0.268875	
	0.282197	
	0.290749	
	0.312622	
	0.322983	
	0.370841	
	0.407680	
	0.482181	
	0.551748	
	0.564905	
	0.581351	
	0.589245	
	0.594014	
	0.597139	
	0.605033	
	0.609145	
	0.613256	
	0.610625	
	0.609145	
	0.605526	
	0.604046	
	0.595494	
	0.594014	
	0.580035	
	0.563589	
	0.537933	
	0.514086	
	0.448631	
	0.349132	
	0.330055	
	0.304399	
	0.302425	
	0.291406	
	0.288446	
	0.272987	
	0.269533	
	0.271836	
	0.272822	
	0.275618	
	0.278250	0.045946
	0.283183	
	0.306372	
	0.305715	
	0.322818	
	0.346336	
	0.362782	
	0.385642	
	0.454387	
	0.528888	
	0.551090	
	0.570825	
	0.580857	
	0.590396	
	0.594014	
	0.605033	
	0.606020	
	0.607829	
	0.603224	
	0.601744	
	0.601579	
	0.596152	
	0.591218	
	0.585956	
	0.572634	
	0.563589	
	0.531190	
	0.476918	
	0.418370	
	0.356039	
	0.336798	
	0.318214	
	0.316076	
	0.308839	
	0.311964	
	0.288446	
	0.285486	
	0.279072	
	0.276112	
	0.269204	
	0.276276	
	0.278743	
	0.288775	
	0.299794	
	0.313938	
	0.317062	
	0.353079	
	0.394194	
	0.477247	
	0.515237	
	0.532012	
	0.558326	
	0.568029	
	0.581022	
	0.591383	
	0.602402	
	0.606678	
	0.605855	
	0.607171	
	0.605855	
	0.601415	
	0.597139	
	0.586120	
	0.577733	
	0.561780	
	0.545827	
	0.520665	
	0.471820	
	0.410312	
	0.335482	
	0.309168	
	0.284992	
	0.278250	
	0.278085	
	0.272000	
	0.263448	
	0.259008	
	0.259830	
	0.263119	
	0.269698	
	0.273151	
	0.281374	
	0.290091	
	0.296669	
	0.319036	
	0.326765	
	0.354230	
	0.376926	
	0.454551	
	0.520336	
	0.543689	
	0.569016	
	0.580035	
	0.590560	
	0.595001	
	0.602237	
	0.610296	
	0.616874	
	0.618025	
	0.618354	
	0.617203	0.055090
	0.611283	
	0.598619	
	0.586613	
	0.571483	
	0.551748	
	0.512442	
	0.403075	
	0.341402	
	0.315253	
	0.303741	
	0.293380	
	0.290091	
	0.280059	
	0.281374	
	0.270027	
	0.263941	
	0.265915	
	0.274303	
	0.288446	
	0.287953	
	0.297163	
	0.308675	
	0.316076	
	0.343212	
	0.363440	
	0.434816	
	0.521816	
	0.529381	
	0.553228	
	0.567207	
	0.580528	
	0.588094	
	0.591712	
	0.591218	
	0.597468	
	0.601415	
	0.603717	
	0.602731	
	0.599935	
	0.601908	
	0.603388	
	0.589574	
	0.585956	
	0.576910	
	0.562931	
	0.541222	
	0.497640	
	0.382189	
	0.316404	
	0.299629	
	0.287953	
	0.290255	
	0.287624	
	0.284828	
	0.275454	
	0.271507	
	0.270355	
	0.269204	
	0.279730	
	0.283019	
	0.293051	
	0.314102	
	0.346830	
	0.423962	
	0.475602	
	0.503890	
	0.518856	
	0.542538	
	0.575266	
	0.586613	
	0.596317	
	0.589245	
	0.588587	
	0.586613	
	0.587765	
	0.593192	
	0.589903	
	0.583653	
	0.574279	
	0.568358	
	0.564576	
	0.559971	
	0.554544	
	0.535466	
	0.504712	
	0.484977	
	0.421001	
	0.399951	
	0.369196	
	0.338936	
	0.316569	
	0.301932	
	0.294038	
	0.284992	
	0.274796	
	0.269204	
	0.265751	
	0.261968	
	0.267724	
	0.270027	0.037015
	0.276276	
	0.292229	
	0.305057	
	0.331535	
	0.365907	
	0.434158	
	0.507672	
	0.523789	
	0.549939	
	0.562767	
	0.579542	
	0.584969	
	0.593192	
	0.598455	
	0.605197	
	0.610296	
	0.613256	
	0.608816	
	0.609309	
	0.602402	
	0.601086	
	0.594836	
	0.585298	
	0.575595	
	0.559313	
	0.537111	
	0.512442	
	0.498134	
	0.399622	
	0.336962	
	0.308181	
	0.298149	
	0.283512	
	0.275125	
	0.266244	
	0.255225	
	0.256047	
	0.261310	
	0.267724	
	0.274138	
	0.282690	
	0.296998	
	0.310977	
	0.334824	
	0.369854	
	0.431363	
	0.495173	
	0.525927	
	0.550597	
	0.566385	
	0.578884	
	0.582009	
	0.587765	
	0.594508	
	0.595988	
	0.607007	
	0.612269	
	0.613256	
	0.608487	
	0.606020	
	0.599935	
	0.588916	
	0.585462	
	0.576417	
	0.560135	
	0.542045	
	0.511126	
	0.436790	
	0.357355	
	0.328410	
	0.307359	
	0.300616	
	0.290420	
	0.286308	
	0.275289	
	0.264270	
	0.264599	
	0.265586	
	0.270849	
	0.273480	
	0.278743	
	0.291735	
	0.303905	
	0.323312	
	0.338278	
	0.391399	
	0.455703	
	0.502903	
	0.543854	
	0.563096	
	0.579377	
	0.581515	
	0.588751	
	0.592370	
	0.600428	
	0.605033	
	0.605855	
	0.606184	
	0.606184	
	0.606020	0.048603
	0.596974	
	0.590889	
	0.586120	
	0.576417	
	0.563918	
	0.552570	
	0.525434	
	0.474287	
	0.400773	
	0.331370	
	0.301274	
	0.292229	
	0.282526	
	0.282690	
	0.273645	
	0.261475	
	0.259501	
	0.263448	
	0.268382	
	0.272658	
	0.276441	
	0.293544	
	0.300616	
	0.314595	
	0.343047	
	0.393208	
	0.483990	
	0.525763	
	0.552735	
	0.568194	
	0.578555	
	0.585627	
	0.588587	
	0.592534	
	0.600099	
	0.607171	
	0.609802	
	0.614078	
	0.613585	
	0.611283	
	0.606513	
	0.597303	
	0.593356	
	0.581844	
	0.574114	
	0.550925	
	0.520171	
	0.446164	
	0.351928	
	0.314102	
	0.294860	
	0.295189	
	0.289104	
	0.280716	
	0.279072	
	0.260323	
	0.259830	
	0.258843	
	0.259666	
	0.263119	
	0.264270	
	0.278578	
	0.283019	
	0.301110	
	0.329726	
	0.370183	
	0.483990	
	0.518527	
	0.541551	
	0.564411	
	0.577239	
	0.585791	
	0.589903	
	0.589738	
	0.595001	
	0.603882	
	0.605855	
	0.605691	
	0.604540	
	0.606020	
	0.604869	
	0.598619	
	0.597961	
	0.593192	
	0.577404	
	0.558984	
	0.543031	
	0.534644	
	0.490568	
	0.377090	
	0.323805	
	0.296998	
	0.271178	
	0.256541	
	0.248647	
	0.237957	
	0.245029	
	0.251771	
	0.256870	
	0.263284	0.038165
	0.271836	
	0.283348	
	0.290913	
	0.310155	
	0.331535	
	0.351764	
	0.415574	
	0.481194	
	0.519513	
	0.544511	
	0.568852	
	0.577239	
	0.584969	
	0.588094	
	0.595494	
	0.605033	
	0.601908	
	0.607335	
	0.607007	
	0.604869	
	0.598948	
	0.591547	
	0.586613	
	0.570825	
	0.557504	
	0.537933	
	0.496653	
	0.447480	
	0.368210	
	0.328246	
	0.309662	
	0.301274	
	0.289762	
	0.279401	
	0.273480	
	0.260981	
	0.266408	
	0.266902	
	0.271671	
	0.279730	
	0.282361	
	0.292393	
	0.302096	
	0.314924	
	0.334166	
	0.360480	
	0.395839	
	0.489417	
	0.532835	
	0.562273	
	0.586449	
	0.590725	
	0.598784	
	0.601744	
	0.603224	
	0.614572	
	0.614243	
	0.614736	
	0.612269	
	0.610789	
	0.603717	
	0.594508	
	0.585791	
	0.568852	
	0.558655	
	0.546814	
	0.526421	
	0.499778	
	0.414588	
	0.333673	
	0.312951	
	0.306372	
	0.300123	
	0.288775	
	0.275289	
	0.264435	
	0.260323	
	0.258185	
	0.268382	
	0.269204	
	0.277427	
	0.286637	
	0.296011	
	0.302425	
	0.314102	
	0.322325	
	0.341896	
	0.350448	
	0.399293	
	0.503232	
	0.549774	
	0.565234	
	0.575101	
	0.587600	
	0.597303	
	0.608980	
	0.611283	
	0.613585	
	0.610625	
	0.606678	0.034795
	0.605033	
	0.594343	
	0.585956	
	0.573950	
	0.556846	
	0.549116	
	0.527408	
	0.489911	
	0.417054	
	0.350283	
	0.318378	
	0.299465	
	0.287624	
	0.281703	
	0.277098	
	0.269698	
	0.271013	
	0.263941	
	0.262626	
	0.267066	
	0.272000	
	0.284499	
	0.297327	
	0.307359	
	0.324299	
	0.345514	
	0.424620	
	0.496818	
