	0.376104	0.131138
	0.362618	
	0.329397	
	0.312128	
	0.300123	
	0.295025	
	0.287953	
	0.286308	
	0.276605	
	0.278250	
	0.278907	
	0.281045	
	0.282361	
	0.287788	
	0.291406	
	0.304399	
	0.309168	
	0.331206	
	0.354230	
	0.391234	
	0.462117	
	0.501094	
	0.547307	
	0.562273	
	0.573292	
	0.577568	
	0.578061	
	0.580199	
	0.590067	
	0.587271	
	0.589903	
	0.582995	
	0.585133	
	0.587929	
	0.578390	
	0.571483	
	0.572470	
	0.553721	
	0.540071	
	0.511619	
	0.469353	
	0.409325	
	0.347816	
	0.324956	
	0.304070	
	0.293873	
	0.286637	
	0.285157	
	0.276112	
	0.274796	
	0.272987	
	0.275947	
	0.281374	
	0.285321	
	0.295847	
	0.321174	
	0.324627	
	0.365085	
	0.386300	
	0.399457	
	0.466886	
	0.503890	
	0.537275	
	0.554215	
	0.568852	
	0.573950	
	0.579377	
	0.583653	
	0.593356	
	0.593192	
	0.593356	
	0.589574	
	0.585462	
	0.585298	
	0.573128	
	0.561451	
	0.562767	
	0.539084	
	0.519513	
	0.489911	
	0.438270	
	0.389754	
	0.345350	
	0.327259	
	0.308675	
	0.302590	
	0.297656	
	0.290913	
	0.283348	
	0.282526	
	0.280716	
	0.286308	
	0.290584	
	0.294038	
	0.295025	
	0.309168	
	0.310648	
	0.329890	
	0.357355	
	0.401102	
	0.503561	0.049087
	0.533493	
	0.562438	
	0.572799	
	0.582831	
	0.583489	
	0.583982	
	0.581844	
	0.591383	
	0.591218	
	0.588916	
	0.583653	
	0.584311	
	0.585133	
	0.574443	
	0.562931	
	0.560300	
	0.551912	
	0.516882	
	0.470175	
	0.384656	
	0.365249	
	0.332851	
	0.315911	
	0.296505	
	0.293544	
	0.293873	
	0.294202	
	0.286308	
	0.284828	
	0.280388	
	0.283348	
	0.295025	
	0.297985	
	0.306537	
	0.317556	
	0.331864	
	0.367881	
	0.407022	
	0.498791	
	0.514086	
	0.512771	
	0.535960	
	0.540893	
	0.563589	
	0.570332	
	0.578226	
	0.579706	
	0.587271	
	0.587436	
	0.589245	
	0.583818	
	0.579048	
	0.580857	
	0.573621	
	0.564082	
	0.560958	
	0.542538	
	0.524941	
	0.459156	
	0.399293	
	0.365578	
	0.329726	
	0.328246	
	0.313773	
	0.304234	
	0.294531	
	0.302096	
	0.297656	
	0.291078	
	0.280388	
	0.281703	
	0.279072	
	0.286144	
	0.292229	
	0.313115	
	0.320680	
	0.348639	
	0.397977	
	0.461788	
	0.479714	
	0.478727	
	0.513757	
	0.512113	
	0.548623	
	0.548623	
	0.562931	
	0.569345	
	0.584640	
	0.588094	
	0.588258	
	0.583982	
	0.581680	
	0.584147	
	0.577897	
	0.567536	
	0.554544	
	0.537111	
	0.524612	
	0.487279	
	0.418863	0.037483
	0.371828	
	0.330877	
	0.321009	
	0.299629	
	0.292722	
	0.286966	
	0.284006	
	0.276934	
	0.282690	
	0.286144	
	0.296669	
	0.299958	
	0.307524	
	0.307195	
	0.318871	
	0.329232	
	0.358671	
	0.368045	
	0.395181	
	0.419686	
	0.472313	
	0.507508	
	0.529052	
	0.554050	
	0.558491	
	0.570167	
	0.579542	
	0.587436	
	0.592370	
	0.593027	
	0.590725	
	0.590232	
	0.594179	
	0.591218	
	0.572141	
	0.561944	
	0.548787	
	0.540400	
	0.536453	
	0.499285	
	0.420344	
	0.356697	
	0.328081	
	0.311142	
	0.308839	
	0.295025	
	0.294860	
	0.285321	
	0.277756	
	0.272329	
	0.279236	
	0.280716	
	0.289762	
	0.295682	
	0.310648	
	0.323641	
	0.348310	
	0.379886	
	0.414588	
	0.455703	
	0.455209	
	0.506850	
	0.526750	
	0.549939	
	0.558491	
	0.568358	
	0.571812	
	0.577897	
	0.581186	
	0.579871	
	0.576088	
	0.573621	
	0.573457	
	0.569510	
	0.554873	
	0.557339	
	0.540729	
	0.532999	
	0.499778	
	0.469188	
	0.439914	
	0.362782	
	0.342883	
	0.316733	
	0.310484	
	0.300287	
	0.297656	
	0.292229	
	0.288940	
	0.285157	
	0.287295	
	0.287295	
	0.286966	
	0.291406	
	0.303412	
	0.315747	
	0.335482	
	0.365249	
	0.421166	
	0.483990	0.035901
	0.504712	
	0.535302	
	0.545334	
	0.558326	
	0.567043	
	0.572963	
	0.576910	
	0.586778	
	0.591054	
	0.591383	
	0.592534	
	0.592205	
	0.591218	
	0.583489	
	0.574937	
	0.562438	
	0.556188	
	0.545827	
	0.521158	
	0.501094	
	0.464748	
	0.375117	
	0.342718	
	0.309826	
	0.300123	
	0.285321	
	0.283677	
	0.279730	
	0.277427	
	0.281374	
	0.289926	
	0.290913	
	0.293215	
	0.308346	
	0.327423	
	0.333673	
	0.359000	
	0.399786	
	0.483661	
	0.516060	
	0.530039	
	0.552241	
	0.562109	
	0.577239	
	0.575759	
	0.579542	
	0.587765	
	0.586942	
	0.587107	
	0.583818	
	0.577568	
	0.565069	
	0.557010	
	0.557010	
	0.555201	
	0.555037	
	0.536617	
	0.539084	
	0.524941	
	0.510139	
	0.495502	
	0.425113	
	0.351435	
	0.319858	
	0.306372	
	0.293544	
	0.288940	
	0.284006	
	0.278085	
	0.285650	
	0.286966	
	0.293873	
	0.292229	
	0.290584	
	0.301274	
	0.307195	
	0.318707	
	0.336469	
	0.371828	
	0.435474	
	0.495996	
	0.525105	
	0.538426	
	0.562273	
	0.573621	
	0.579213	
	0.583324	
	0.585298	
	0.585956	
	0.591218	
	0.589080	
	0.589080	
	0.589080	
	0.586449	
	0.571976	
	0.571812	
	0.566549	
	0.548623	
	0.529710	
	0.468202	0.027237
	0.443204	
	0.387945	
	0.370183	
	0.323805	
	0.312293	
	0.303741	
	0.300945	
	0.295682	
	0.283348	
	0.291571	
	0.292558	
	0.295682	
	0.293051	
	0.298478	
	0.315418	
	0.320023	
	0.334166	
	0.366565	
	0.395181	
	0.435474	
	0.418863	
	0.434816	
	0.507014	
	0.541551	
	0.560793	
	0.579048	
	0.590889	
	0.593027	
	0.594836	
	0.594508	
	0.596317	
	0.594343	
	0.588258	
	0.584147	
	0.564905	
	0.550925	
	0.537769	
	0.528230	
	0.503232	
	0.436625	
	0.381202	
	0.342225	
	0.329890	
	0.309004	
	0.301439	
	0.296011	
	0.293215	
	0.288117	
	0.279072	
	0.277921	
	0.276934	
	0.278578	
	0.285486	
	0.293709	
	0.306537	
	0.319529	
	0.336633	
	0.344856	
	0.358835	
	0.411134	
	0.493693	
	0.522967	
	0.548952	
	0.569510	
	0.573621	
	0.579377	
	0.581186	
	0.591383	
	0.594343	
	0.596317	
	0.592698	
	0.596317	
	0.596481	
	0.590232	
	0.583818	
	0.577239	
	0.566220	
	0.559148	
	0.552077	
	0.538262	
	0.523954	
	0.486457	
	0.394359	
	0.354559	
	0.326765	
	0.316733	
	0.304892	
	0.289597	
	0.278085	
	0.271507	
	0.271836	
	0.267889	
	0.268875	
	0.271178	
	0.285979	
	0.295518	
	0.306866	
	0.317062	
	0.335975	
	0.355711	0.031946
	0.372814	
	0.476260	
	0.529874	
	0.555695	
	0.563589	
	0.571812	
	0.574772	
	0.582173	
	0.589409	
	0.593356	
	0.591712	
	0.587436	
	0.587929	
	0.583160	
	0.573621	
	0.568358	
	0.555530	
	0.536946	
	0.519842	
	0.477576	
	0.428402	
	0.371663	
	0.341896	
	0.320023	
	0.312128	
	0.297820	
	0.294038	
	0.291735	
	0.277263	
	0.278907	
	0.277592	
	0.283677	
	0.288940	
	0.296340	
	0.314595	
	0.315582	
	0.334495	
	0.358506	
	0.407022	
	0.486950	
	0.505205	
	0.539084	
	0.559148	
	0.571154	
	0.580199	
	0.580693	
	0.582173	
	0.588751	
	0.594672	
	0.597632	
	0.593850	
	0.594672	
	0.591383	
	0.588258	
	0.573785	
	0.563589	
	0.547801	
	0.527079	
	0.514580	
	0.470175	
	0.430705	
	0.357191	
	0.329397	
	0.309990	
	0.301603	
	0.295025	
	0.295682	
	0.282690	
	0.275454	
	0.275454	
	0.274631	
	0.278250	
	0.279236	
	0.292558	
	0.299465	
	0.313773	
	0.336798	
	0.372979	
	0.410476	
	0.463926	
	0.473136	
	0.521816	
	0.538755	
	0.564411	
	0.573621	
	0.585956	
	0.589245	
	0.592863	
	0.599277	
	0.601086	
	0.598619	
	0.597797	
	0.593356	
	0.589738	
	0.583818	
	0.568523	
	0.553557	
	0.538591	
	0.534808	
	0.521487	0.038918
	0.511784	
	0.490239	
	0.443204	
	0.352092	
	0.324299	
	0.315089	
	0.303412	
	0.298972	
	0.288446	
	0.284006	
	0.285979	
	0.281539	
	0.277756	
	0.277263	
	0.279072	
	0.281374	
	0.287788	
	0.297491	
	0.312128	
	0.343705	
	0.393865	
	0.504219	
	0.539578	
	0.558491	
	0.563918	
	0.569181	
	0.581022	
	0.589409	
	0.594508	
	0.595494	
	0.596481	
	0.595659	
	0.586285	
	0.585462	
	0.573128	
	0.566714	
	0.561615	
	0.555530	
	0.538755	
	0.536124	
	0.521980	
	0.439257	
	0.350283	
	0.317062	
	0.301603	
	0.287788	
	0.281703	
	0.279565	
	0.267560	
	0.272822	
	0.271671	
	0.279565	
	0.283512	
	0.292393	
	0.304563	
	0.318214	
	0.343212	
	0.378242	
	0.463926	
	0.515237	
	0.534644	
	0.549281	
	0.563424	
	0.571648	
	0.579213	
	0.581351	
	0.583982	
	0.583324	
	0.591383	
	0.587436	
	0.591712	
	0.591547	
	0.591383	
	0.592863	
	0.585133	
	0.575430	
	0.564247	
	0.541716	
	0.501094	
	0.402582	
	0.355217	
	0.332851	
	0.317391	
	0.301932	
	0.302590	
	0.298314	
	0.289433	
	0.285815	
	0.268053	
	0.270355	
	0.266244	
	0.274138	
	0.275454	
	0.276441	
	0.288282	
	0.300945	
	0.312128	
	0.317227	
	0.347816	
	0.379557	0.033070
	0.447973	
	0.521487	
	0.546978	
	0.567536	
	0.573457	
	0.581680	
	0.587107	
	0.587271	
	0.597468	
	0.596152	
	0.593850	
	0.591876	
	0.587436	
	0.577239	
	0.565069	
	0.566056	
	0.562931	
	0.546321	
	0.527572	
	0.513922	
	0.479056	
	0.405542	
	0.330219	
	0.318871	
	0.305057	
	0.300123	
	0.291735	
	0.282361	
	0.269369	
	0.269862	
	0.268217	
	0.272822	
	0.275783	
	0.279401	
	0.290749	
	0.303248	
	0.314595	
	0.336140	
	0.373308	
	0.463432	
	0.524447	
	0.545992	
	0.567536	
	0.585298	
	0.590725	
	0.595823	
	0.597303	
	0.598784	
	0.602566	
	0.600264	
	0.592863	
	0.585462	
	0.587271	
	0.583982	
	0.566220	
	0.553228	
	0.545169	
	0.529546	
	0.511455	
	0.475767	
	0.420344	
	0.357026	
	0.333344	
	0.299794	
	0.292064	
	0.288775	
	0.274467	
	0.269040	
	0.266408	
	0.272493	
	0.268711	
	0.270849	
	0.279401	
	0.284664	
	0.292722	
	0.302425	
	0.316240	
	0.347652	
	0.384985	
	0.475438	
	0.508824	
	0.540893	
	0.559313	
	0.576746	
	0.582995	
	0.584640	
	0.589409	
	0.588094	
	0.597139	
	0.595659	
	0.594179	
	0.590560	
	0.591383	
	0.582831	
	0.577075	
	0.566385	
	0.552241	
	0.533657	
	0.526750	
	0.503561	0.031354
	0.470175	
	0.407187	
	0.339100	
	0.313115	
	0.300945	
	0.291735	
	0.286802	
	0.282197	
	0.271013	
	0.279401	
	0.281045	
	0.288775	
	0.288282	
	0.297163	
	0.306701	
	0.329726	
	0.356533	
	0.413436	
	0.470011	
	0.534644	
	0.552077	
	0.575595	
	0.583489	
	0.594179	
	0.599770	
	0.601908	
	0.596974	
	0.591054	
	0.593850	
	0.592205	
	0.601415	
	0.597468	
	0.595165	
	0.585791	
	0.570825	
	0.558491	
	0.550761	
	0.551254	
	0.542373	
	0.473136	
	0.400115	
	0.362618	
	0.313444	
	0.300452	
	0.293215	
	0.275947	
	0.265751	
	0.262626	
	0.255718	
	0.264764	
	0.268875	
	0.269369	
	0.270849	
	0.277263	
	0.293380	
	0.303741	
	0.313280	
	0.331206	
	0.372321	
	0.405378	
	0.476754	
	0.522474	
	0.546814	
	0.565562	
	0.577075	
	0.589245	
	0.592698	
	0.592698	
	0.600099	
	0.592534	
	0.596152	
	0.593850	
	0.590232	
	0.582831	
	0.574937	
	0.558984	
	0.545992	
	0.522145	
	0.491884	
	0.427744	
	0.393372	
	0.377255	
	0.346007	
	0.344527	
	0.343376	
	0.326765	
	0.319529	
	0.311142	
	0.292229	
	0.291406	
	0.292887	
	0.292722	
	0.290091	
	0.288282	
	0.293380	
	0.311306	
	0.328575	
	0.359658	
	0.361631	
	0.405049	0.033242
	0.474122	
	0.516718	
	0.547801	
	0.566714	
	0.576088	
	0.581680	
	0.586120	
	0.594836	
	0.604375	
	0.601744	
	0.602566	
	0.601250	
	0.598455	
	0.591712	
	0.586778	
	0.576910	
	0.570167	
	0.554379	
	0.537275	
	0.492706	
	0.384820	
	0.323641	
	0.305550	
	0.285815	
	0.279072	
	0.276441	
	0.275618	
	0.274138	
	0.264599	
	0.271507	
	0.266573	
	0.274138	
	0.273151	
	0.278578	
	0.288775	
	0.304728	
	0.309004	
	0.336798	
	0.375610	
	0.484812	
	0.507179	
	0.528230	
	0.547801	
	0.556846	
	0.559642	
	0.570990	
	0.573785	
	0.586120	
	0.599935	
	0.604211	
	0.607500	
	0.603060	
	0.601086	
	0.598619	
	0.592698	
	0.577404	
	0.559642	
	0.551912	
	0.544347	
	0.541551	
	0.536617	
	0.493364	
	0.369525	
	0.317062	
	0.303741	
	0.292558	
	0.292229	
	0.294696	
	0.281045	
	0.282690	
	0.283512	
	0.298149	
	0.300452	
	0.296011	
	0.292887	
	0.304728	
	0.316076	
	0.353079	
	0.361796	
	0.397155	
	0.379557	
	0.415574	
	0.515895	
	0.559971	
	0.565069	
	0.570496	
	0.580035	
	0.587271	
	0.601415	
	0.599112	
	0.600593	
	0.590067	
	0.588258	
	0.588094	
	0.583653	
	0.567207	
	0.564411	
	0.545663	
	0.528065	
	0.481359	0.033557
	0.377748	
	0.335646	
	0.316240	
	0.307688	
	0.297491	
	0.287953	
	0.288611	
	0.284828	
	0.271836	
	0.273809	
	0.270355	
	0.272493	
	0.275289	
	0.272000	
	0.274631	
	0.295518	
	0.314102	
	0.346501	
	0.373637	
	0.393537	
	0.429060	
	0.412614	
	0.512113	
	0.544511	
	0.567207	
	0.575759	
	0.580857	
	0.584969	
	0.596317	
	0.601250	
	0.609145	
	0.603388	
	0.601744	
	0.592863	
	0.596481	
	0.592370	
	0.577404	
	0.556682	
	0.547965	
	0.534808	
	0.512935	
	0.452249	
	0.368210	
	0.350612	
	0.329890	
	0.297163	
	0.270027	
	0.261803	
	0.256705	
	0.265422	
	0.269040	
	0.279730	
	0.283183	
	0.287624	
	0.291406	
	0.299794	
	0.302261	
	0.309004	
	0.332522	
	0.371499	
	0.473793	
	0.520994	
	0.563589	
	0.577239	
	0.588916	
	0.596646	
	0.605362	
	0.604375	
	0.603224	
	0.590889	
	0.589903	
	0.582831	
	0.571648	
	0.562273	
	0.556024	
	0.547636	
	0.552570	
	0.549610	
	0.542538	
	0.524118	
	0.487279	
	0.460308	
	0.364591	
	0.329397	
	0.312293	
	0.300616	
	0.290255	
	0.287624	
	0.275454	
	0.282526	
	0.287624	
	0.292558	
	0.287459	
	0.288611	
	0.307524	
	0.335646	
	0.339100	
	0.363111	
	0.387287	
	0.444355	0.035159
	0.518033	
	0.530861	
	0.550761	
	0.550761	
	0.551419	
	0.560629	
	0.566220	
	0.577075	
	0.585791	
	0.585627	
	0.593685	
	0.599441	
	0.599935	
	0.599112	
	0.590396	
	0.586942	
	0.582502	
	0.558491	
	0.551748	
	0.514415	
	0.497476	
	0.484319	
	0.359493	
	0.325779	
	0.326272	
	0.336304	
	0.319365	
	0.308510	
	0.281539	
	0.284006	
	0.276934	
	0.275289	
	0.284335	
	0.284664	
	0.295025	
	0.309497	
	0.296998	
	0.308181	
	0.318378	
	0.365249	
	0.440079	
	0.511455	
	0.537275	
	0.539249	
	0.541222	
	0.545498	
	0.554379	
	0.549610	
	0.572634	
	0.567207	
	0.581515	
	0.581186	
	0.590889	
	0.598619	
	0.602731	
	0.600428	
	0.595823	
	0.585298	
	0.569016	
	0.537275	
	0.530039	
	0.534973	
	0.513757	
	0.469517	
	0.381202	
	0.336304	
	0.304070	
	0.294202	
	0.270684	
	0.268053	
	0.260981	
	0.261146	
	0.261803	
	0.264928	
	0.266408	
	0.269862	
	0.273809	
	0.296340	
	0.319365	
	0.370019	
	0.520171	
	0.563424	
	0.575595	
	0.592041	
	0.604046	
	0.604869	
	0.604375	
	0.603224	
	0.606020	
	0.601086	
	0.601908	
	0.587600	
	0.582995	
	0.584640	
	0.567536	
	0.531355	
	0.493858	
	0.393043	
	0.406364	
	0.437612	0.033854
	0.424620	
	0.408502	
	0.339922	
	0.326437	
	0.312293	
	0.311964	
	0.311800	
	0.306372	
	0.271836	
	0.266408	
	0.275125	
	0.300945	
	0.318378	
	0.317885	
	0.329397	
	0.367716	
	0.412943	
	0.418206	
	0.390412	
	0.432020	
	0.401102	
	0.503561	
	0.559148	
	0.569181	
	0.575430	
	0.577733	
	0.586778	
	0.588422	
	0.600264	
	0.602566	
	0.604046	
	0.596481	
	0.583324	
	0.560300	
	0.558162	
	0.541058	
	0.531684	
	0.474780	
	0.458005	
	0.387945	
	0.429718	
	0.425442	
	0.347652	
	0.311306	
	0.292558	
	0.271342	
	0.257528	
	0.253580	
	0.254732	
	0.272165	
	0.274631	
	0.278743	
	0.275947	
	0.281539	
	0.292887	
	0.327423	
	0.335317	
	0.385149	
	0.422482	
	0.498462	
	0.531355	
	0.548952	
	0.572470	
	0.583160	
	0.588916	
	0.593192	
	0.599112	
	0.600099	
	0.610131	
	0.606020	
	0.601086	
	0.589409	
	0.599935	
	0.606678	
	0.602731	
	0.586613	
	0.574608	
	0.535466	
	0.509646	
	0.482674	
	0.457183	
	0.366894	
	0.308181	
	0.292887	
	0.290255	
	0.292722	
	0.290420	
	0.287624	
	0.264435	
	0.255225	
	0.241575	
	0.240424	
	0.243548	
	0.255554	
	0.269040	
	0.272658	
	0.270849	
	0.291571	
	0.322161	
	0.346336	0.040827
	0.379557	
	0.424784	
	0.520171	
	0.549445	
	0.563424	
	0.579213	
	0.587600	
	0.597797	
	0.610625	
	0.609309	
	0.607171	
	0.600757	
	0.600264	
	0.593521	
	0.587107	
	0.569510	
	0.543525	
	0.498298	
	0.466228	
	0.388109	
	0.367881	
	0.360973	
	0.330219	
	0.330219	
	0.308839	
	0.298314	
	0.289268	
	0.284499	
	0.270191	
	0.276769	
	0.275947	
	0.293544	
	0.308181	
	0.336304	
	0.361467	
	0.357849	
	0.341402	
	0.361796	
	0.409818	
	0.516553	
	0.548952	
	0.555037	
	0.572141	
	0.572305	
	0.567207	
	0.560793	
	0.564576	
	0.562273	
	0.580035	
	0.579706	
	0.579706	
	0.574608	
	0.570167	
	0.568029	
	0.562931	
	0.561615	
	0.560629	
	0.546814	
	0.536124	
	0.509810	
	0.435638	
	0.347816	
	0.313938	
	0.302754	
	0.289104	
	0.283677	
	0.284335	
	0.280716	
	0.267066	
	0.268217	
	0.264928	
	0.268875	
	0.272987	
	0.277263	
	0.284992	
	0.303248	
	0.302425	
	0.316404	
	0.334660	
	0.350612	
	0.410805	
	0.489253	
	0.539742	
	0.561780	
	0.577897	
	0.585462	
	0.591383	
	0.592041	
	0.608322	
	0.609967	
	0.617203	
	0.617039	
	0.619670	
	0.625426	
	0.627400	
	0.627400	
	0.626742	
	0.610296	
	0.597139	
	0.581680	0.041643
	0.570167	
	0.524447	
	0.360644	
	0.308675	
	0.279401	
	0.277756	
	0.272000	
	0.258021	
	0.247989	
	0.261310	
	0.278250	
	0.286966	
	0.279894	
	0.281045	
	0.292393	
	0.322161	
	0.321832	
	0.347816	
	0.360644	
	0.389918	
	0.446164	
	0.445506	
	0.458334	
	0.502081	
	0.541880	
	0.559642	
	0.572963	
	0.570332	
	0.580035	
	0.583160	
	0.580857	
	0.584969	
	0.588422	
	0.588094	
	0.578390	
	0.575595	
	0.578226	
	0.550103	
	0.489253	
	0.339922	
	0.329068	
	0.350283	
	0.333179	
	0.336140	
	0.332686	
	0.342883	
	0.355382	
	0.339758	
	0.308017	
	0.303905	
	0.284828	
	0.282854	
	0.284992	
	0.294531	
	0.303741	
	0.314924	
	0.328081	
	0.372321	
	0.418370	
	0.499120	
	0.536782	
	0.540236	
	0.562273	
	0.583653	
	0.590067	
	0.593027	
	0.601086	
	0.601744	
	0.612105	
	0.606020	
	0.602402	
	0.604704	
	0.607007	
	0.605362	
	0.600428	
	0.583160	
	0.582502	
	0.575101	
	0.561451	
	0.529546	
	0.479878	
	0.443204	
	0.327752	
	0.298807	
	0.276769	
	0.273151	
	0.263284	
	0.263777	
	0.244535	
	0.236641	
	0.229734	
	0.231872	
	0.236641	
	0.240588	
	0.249633	
	0.258185	
	0.268217	
	0.290584	
	0.317720	
	0.385478	0.046399
	0.515731	
	0.561451	
	0.597797	
	0.608980	
	0.617039	
	0.614901	
	0.609145	
	0.602566	
	0.611611	
	0.617697	
	0.624275	
	0.620986	
	0.606349	
	0.591218	
	0.574772	
	0.552406	
	0.528723	
	0.477740	
	0.379557	
	0.351599	
	0.331864	
	0.316733	
	0.289268	
	0.285321	
	0.280388	
	0.263613	
	0.264435	
	0.266079	
	0.262461	
	0.284499	
	0.286308	
	0.298314	
	0.307195	
	0.319858	
	0.334331	
	0.323805	
	0.310648	
	0.320516	
	0.318214	
	0.343540	
	0.405871	
	0.519678	
	0.565562	
	0.578884	
	0.576417	
	0.579377	
	0.556188	
	0.543031	
	0.563753	
	0.573950	
	0.583324	
	0.580528	
	0.570825	
	0.563753	
	0.557668	
	0.538755	
	0.549281	
	0.547965	
	0.548130	
	0.548459	
	0.537440	
	0.510304	
	0.345514	
	0.317885	
	0.301110	
	0.294202	
	0.276605	
	0.280881	
	0.268546	
	0.271507	
	0.271507	
	0.272329	
	0.281539	
	0.280716	
	0.289104	
	0.312951	
	0.323147	
	0.347652	
	0.390741	
	0.434323	
	0.490239	
	0.483168	
	0.551912	
	0.551748	
	0.575266	
	0.575923	
	0.581680	
	0.584640	
	0.602731	
	0.601415	
	0.603224	
	0.592698	
	0.582995	
	0.578226	
	0.575923	
	0.561780	
	0.557997	
	0.539249	
	0.507179	
	0.472642	0.054834
	0.426922	
	0.394688	
	0.340580	
	0.327752	
	0.312293	
	0.298314	
	0.296834	
	0.294696	
	0.297491	
	0.307853	
	0.307524	
	0.316569	
	0.324956	
	0.320680	
	0.364263	
	0.381531	
	0.350941	
	0.369361	
	0.455703	
	0.541880	
	0.551748	
	0.555366	
	0.552241	
	0.559806	
	0.558820	
	0.551748	
	0.567700	
	0.586778	
	0.610625	
	0.617368	
	0.622466	
	0.616545	
	0.616216	
	0.614736	
	0.614078	
	0.616710	
	0.622137	
	0.618190	
	0.617532	
	0.625426	
	0.620328	
	0.598290	
	0.573128	
	0.553392	
	0.462281	
	0.378571	
	0.329561	
	0.326765	
	0.316569	
	0.348310	
	0.353573	
	0.331699	
	0.287788	
	0.275947	
	0.272822	
	0.271013	
	0.272658	
	0.274796	
	0.289104	
	0.309990	
	0.320845	
	0.350941	
	0.386136	
	0.381366	
	0.441888	
	0.512771	
	0.532341	
	0.556188	
	0.578226	
	0.576746	
	0.563260	
	0.559313	
	0.559477	
	0.571648	
	0.587929	
	0.589245	
	0.590067	
	0.584475	
	0.570003	
	0.536617	
	0.494515	
	0.363934	
	0.295847	
	0.279236	
	0.283677	
	0.301932	
	0.349297	
	0.456525	
	0.392714	
	0.282197	
	0.247989	
	0.243548	
	0.234996	
	0.238615	
	0.251771	
	0.264435	
	0.282197	
	0.311306	
	0.350941	
	0.421166	0.051463
	0.499449	
	0.554379	
	0.591383	
	0.603882	
	0.606678	
	0.594343	
	0.571154	
	0.555201	
	0.500929	
	0.423633	
	0.475602	
	0.535960	
	0.553063	
	0.564411	
	0.568687	
	0.547472	
	0.538920	
	0.484154	
	0.372157	
	0.314102	
	0.289268	
	0.282526	
	0.280223	
	0.275454	
	0.259172	
	0.259666	
	0.258185	
	0.259008	
	0.246344	
	0.247660	
	0.246015	
	0.254238	
	0.261968	
	0.272165	
	0.278414	
	0.288282	
	0.298807	
	0.313280	
	0.336633	
	0.374459	
	0.445671	
	0.500436	
	0.533328	
	0.549116	
	0.567700	
	0.569016	
	0.569838	
	0.573292	
	0.589409	
	0.595330	
	0.598948	
	0.597468	
	0.595494	
	0.591876	
	0.582831	
	0.576088	
	0.570332	
	0.547143	
	0.518198	
	0.500929	
	0.479549	
	0.426758	
	0.357355	
	0.335482	
	0.309168	
	0.292722	
	0.286802	
	0.284335	
	0.273809	
	0.275783	
	0.272822	
	0.273974	
	0.283841	
	0.294860	
	0.303412	
	0.321667	
	0.323641	
	0.354724	
	0.406529	
	0.460143	
	0.492213	
	0.526750	
	0.543360	
	0.556682	
	0.571648	
	0.576581	
	0.580528	
	0.584311	
	0.594508	
	0.595494	
	0.594672	
	0.592863	
	0.591218	
	0.594672	
	0.591218	
	0.582337	
	0.575923	
	0.558326	
	0.538755	
	0.498298	0.049219
	0.456032	
	0.508330	
	0.484319	
	0.457183	
	0.398964	
	0.413436	
	0.375939	
	0.341731	
	0.327752	
	0.311142	
	0.313444	
	0.338113	
	0.345514	
	0.362453	
	0.378077	
	0.340251	
	0.304892	
	0.322983	
	0.385971	
	0.457841	
	0.473136	
	0.428402	
	0.424949	
	0.481030	
	0.512771	
	0.526750	
	0.552406	
	0.552570	
	0.564576	
	0.566878	
	0.564740	
	0.587929	
	0.590725	
	0.582173	
	0.575595	
	0.576252	
	0.578884	
	0.557010	
	0.562109	
	0.555695	
	0.562109	
	0.572305	
	0.562931	
	0.545334	
	0.507672	
	0.494351	
	0.483661	
	0.464912	
	0.325943	
	0.297985	
	0.271178	
	0.264928	
	0.280388	
	0.317062	
	0.350448	
	0.370676	
	0.344198	
	0.308510	
	0.302754	
	0.313280	
	0.376926	
	0.539578	
	0.571154	
	0.577897	
	0.586613	
	0.592863	
	0.602895	
	0.613914	
	0.633814	
	0.633320	
	0.618190	
	0.611611	
	0.613749	
	0.619012	
	0.622137	
	0.621479	
	0.629373	
	0.622959	
	0.616710	
	0.593521	
	0.562931	
	0.505041	
	0.347981	
	0.300616	
	0.272165	
	0.250620	
	0.234832	
	0.220688	
	0.215754	
	0.216412	
	0.221182	
	0.224635	
	0.227596	
	0.236312	
	0.247824	
	0.261310	
	0.269204	
	0.269040	
	0.270849	
	0.272987	0.068062
	0.276769	
	0.286308	
	0.319529	
	0.348968	
	0.487115	
	0.514744	
	0.542209	
	0.551254	
	0.572634	
	0.579377	
	0.590889	
	0.592863	
	0.595001	
	0.592205	
	0.587600	
	0.580693	
	0.574608	
	0.550432	
	0.525105	
	0.429060	
	0.366894	
	0.357849	
	0.331699	
	0.309497	
	0.296669	
	0.297491	
	0.298972	
	0.308181	
	0.292887	
	0.284828	
	0.283348	
	0.286144	
	0.276934	
	0.262626	
	0.253909	
	0.265586	
	0.277098	
	0.300123	
	0.323147	
	0.356368	
	0.406200	
	0.478398	
	0.548130	
	0.567700	
	0.581351	
	0.582831	
	0.592370	
	0.598290	
	0.604046	
	0.607829	
	0.607500	
	0.595659	
	0.583982	
	0.576910	
	0.566385	
	0.550432	
	0.548952	
	0.538591	
	0.531848	
	0.519842	
	0.485963	
	0.429882	
	0.381860	
	0.347159	
	0.323312	
	0.317391	
	0.301439	
	0.296011	
	0.291406	
	0.283348	
	0.278085	
	0.279072	
	0.284335	
	0.284006	
	0.288940	
	0.302590	
	0.318214	
	0.342389	
	0.370183	
	0.408338	
	0.505699	
	0.524447	
	0.555037	
	0.576746	
	0.590560	
	0.588587	
	0.597303	
	0.600264	
	0.608651	
	0.615230	
	0.620986	
	0.622959	
	0.624275	
	0.626248	
	0.621479	
	0.616874	
	0.606842	
	0.575430	
	0.538098	
	0.441066	0.058739
	0.348474	
	0.338607	
	0.332522	
	0.335317	
	0.312951	
	0.298643	
	0.296176	
	0.297820	
	0.284992	
	0.282526	
	0.292558	
	0.326272	
	0.393701	
	0.409654	
	0.446000	
	0.501423	
	0.539578	
	0.538262	
	0.437283	
	0.482345	
	0.519185	
	0.544511	
	0.543689	
	0.526256	
	0.560300	
	0.579048	
	0.596317	
	0.613256	
	0.622959	
	0.626742	
	0.621150	
	0.607171	
	0.615394	
	0.635458	
	0.637925	
	0.633156	
	0.624439	
	0.621150	
	0.608487	
	0.591876	
	0.585791	
	0.580528	
	0.553886	
	0.463597	
	0.307524	
	0.303248	
	0.278907	
	0.255061	
	0.234667	
	0.218715	
	0.208683	
	0.205065	
	0.206874	
	0.215097	
	0.232529	
	0.246344	
	0.248976	
	0.256705	
	0.274631	
	0.289926	
	0.340251	
	0.509152	
	0.538591	
	0.561944	
	0.584640	
	0.575266	
	0.585791	
	0.585133	
	0.575595	
	0.569181	
	0.557833	
	0.563096	
	0.567700	
	0.573785	
	0.581351	
	0.594508	
	0.590725	
	0.559642	
	0.500272	
	0.332686	
	0.293051	
	0.278414	
	0.264435	
	0.243219	
	0.230227	
	0.231378	
	0.235490	
	0.240259	
	0.236477	
	0.229076	
	0.234503	
	0.239272	
	0.251278	
	0.274960	
	0.327752	
	0.484977	
	0.506686	
	0.543854	
	0.567043	
	0.586613	0.074911
	0.594343	
	0.587929	
	0.580364	
	0.574114	
	0.566220	
	0.558820	
	0.548787	
	0.538426	
	0.535960	
	0.547472	
	0.539084	
	0.535795	
	0.551912	
	0.555530	
	0.554873	
	0.550103	
	0.541387	
	0.516553	
	0.513593	
	0.509481	
	0.487937	
	0.447809	
	0.373472	
	0.329232	
	0.296669	
	0.286144	
	0.277427	
	0.279730	
	0.282197	
	0.282197	
	0.292558	
	0.298149	
	0.305057	
	0.304399	
	0.306537	
	0.309990	
	0.314102	
	0.316404	
	0.325450	
	0.337291	
	0.354395	
	0.382682	
	0.485470	
	0.538755	
	0.570332	
	0.575595	
	0.580364	
	0.587107	
	0.596481	
	0.604540	
	0.604869	
	0.604869	
	0.601415	
	0.595494	
	0.589080	
	0.580528	
	0.572305	
	0.556846	
	0.534150	
	0.497640	
	0.429389	
	0.368210	
	0.329397	
	0.327094	
	0.306701	
	0.308181	
	0.307853	
	0.316404	
	0.312951	
	0.303905	
	0.305057	
	0.295025	
	0.290913	
	0.300945	
	0.308346	
	0.347159	
	0.345514	
	0.411463	
	0.509317	
	0.552735	
	0.569016	
	0.584311	
	0.605197	
	0.613914	
	0.619670	
	0.610296	
	0.597468	
	0.600922	
	0.612269	
	0.611940	
	0.612927	
	0.610296	
	0.594343	
	0.582173	
	0.581186	
	0.579377	
	0.595494	
	0.593192	
	0.584804	
	0.569510	0.054660
	0.530203	
	0.404555	
	0.327588	
	0.301767	
	0.300123	
	0.297327	
	0.303248	
	0.295025	
	0.285486	
	0.278743	
	0.268711	
	0.264270	
	0.268546	
	0.261146	
	0.260488	
	0.279236	
	0.284828	
	0.298314	
	0.319529	
	0.342389	
	0.391727	
	0.406036	
	0.377255	
	0.393537	
	0.523296	
	0.560793	
	0.596317	
	0.602895	
	0.613256	
	0.637761	
	0.654536	
	0.660621	
	0.656674	
	0.643188	
	0.627235	
	0.609967	
	0.588587	
	0.571648	
	0.539578	
	0.479221	
	0.485635	
	0.416397	
	0.306701	
	0.279565	
	0.282361	
	0.299465	
	0.303577	
	0.278743	
	0.278414	
	0.262626	
	0.250127	
	0.259994	
	0.262626	
	0.261310	
	0.263284	
	0.266902	
	0.286802	
	0.324134	
	0.345021	
	0.356204	
	0.385313	
	0.497805	
	0.500929	
	0.475767	
	0.452249	
	0.391727	
	0.330219	
	0.348968	
	0.374624	
	0.414094	
	0.534973	
	0.568687	
	0.588422	
	0.593850	
	0.587600	
	0.571319	
	0.549281	
	0.533986	
	0.495831	
	0.417548	
	0.354395	
	0.324956	
	0.308017	
	0.299136	
	0.286308	
	0.275454	
	0.271671	
	0.271342	
	0.268546	
	0.259008	
	0.260817	
	0.265257	
	0.270520	
	0.272165	
	0.278414	
	0.288282	
	0.301767	
	0.321009	
	0.339593	
	0.356533	0.056298
	0.395346	
	0.466228	
	0.524612	
	0.553228	
	0.574937	
	0.585627	
	0.587929	
	0.569181	
	0.562109	
	0.567372	
	0.577568	
	0.592041	
	0.588587	
	0.590067	
	0.586449	
	0.574279	
	0.564247	
	0.554050	
	0.537111	
	0.516718	
	0.451262	
	0.405049	
	0.369032	
	0.349790	
	0.323147	
	0.322325	
	0.322654	
	0.308839	
	0.284992	
	0.264928	
	0.259666	
	0.257363	
	0.266408	
	0.278907	
	0.288446	
	0.315253	
	0.347488	
	0.372814	
	0.405378	
	0.481359	
	0.513922	
	0.544676	
	0.556188	
	0.562931	
	0.574608	
	0.583324	
	0.590232	
	0.585298	
	0.588916	
	0.600264	
	0.598126	
	0.601415	
	0.598126	
	0.598126	
	0.595001	
	0.587107	
	0.577568	
	0.574114	
	0.550925	
	0.519513	
	0.459814	
	0.383340	
	0.353902	
	0.340745	
	0.346007	
	0.375117	
	0.373143	
	0.371499	
	0.438928	
	0.411792	
	0.402911	
	0.400115	
	0.431691	
	0.487937	
	0.540564	
	0.552570	
	0.542209	
	0.567700	
	0.564740	
	0.553228	
	0.423468	
	0.353408	
	0.499120	
	0.528230	
	0.457347	
	0.353573	
	0.335153	
	0.336140	
	0.381695	
	0.544840	
	0.576910	
	0.603388	
	0.627893	
	0.628880	
	0.618190	
	0.602073	
	0.571154	
	0.567372	
	0.568852	
	0.564411	0.092587
	0.574608	
	0.586120	
	0.598455	
	0.590560	
	0.552735	
	0.401266	
	0.325121	
	0.395839	
	0.525270	
	0.401431	
	0.316240	
	0.267066	
	0.258350	
	0.272822	
	0.274303	
	0.304234	
	0.352421	
	0.528394	
	0.561615	
	0.567700	
	0.560464	
	0.541551	
	0.573621	
	0.599441	
	0.604540	
	0.600264	
	0.587929	
	0.545663	
	0.538755	
	0.528723	
	0.515895	
	0.332522	
	0.280388	
	0.285321	
	0.310155	
	0.312951	
	0.338607	
	0.373143	
	0.389261	
	0.448631	
	0.369690	
	0.328903	
	0.307359	
	0.299136	
	0.302590	
	0.326765	
	0.326108	
	0.291406	
	0.253087	
	0.228089	
	0.223978	
	0.217235	
	0.221346	
	0.217728	
	0.222662	
	0.238286	
	0.273480	
	0.293215	
	0.340251	
	0.396003	
	0.539742	
	0.569181	
	0.576417	
	0.579871	
	0.575101	
	0.567700	
	0.557339	
	0.566385	
	0.569016	
	0.577568	
	0.556188	
	0.557833	
	0.553721	
	0.574772	
	0.585627	
	0.593850	
	0.589903	
	0.571154	
	0.549774	
	0.509481	
	0.381366	
	0.371170	
	0.378735	
	0.370348	
	0.357355	
	0.338607	
	0.326108	
	0.314595	
	0.309990	
	0.289597	
	0.277592	
	0.269369	
	0.274796	
	0.277921	
	0.283348	
	0.296011	
	0.307195	
	0.310319	
	0.326601	
	0.349954	0.063179
	0.414423	
	0.466557	
	0.530697	
	0.564411	
	0.573457	
	0.580199	
	0.587600	
	0.595001	
	0.596974	
	0.604704	
	0.601415	
	0.607335	
	0.603060	
	0.602073	
	0.594508	
	0.586120	
	0.577897	
	0.573785	
	0.562602	
	0.547801	
	0.511619	
	0.457512	
	0.360315	
	0.322161	
	0.300452	
	0.292229	
	0.289268	
	0.286637	
	0.286637	
	0.274796	
	0.275289	
	0.271178	
	0.264928	
	0.264270	
	0.273151	
	0.287788	
	0.315582	
	0.335153	
	0.377255	
	0.419521	
	0.490568	
	0.521487	
	0.532177	
	0.541222	
	0.566549	
	0.580528	
	0.595659	
	0.604046	
	0.602895	
	0.610625	
	0.608322	
	0.605855	
	0.598619	
	0.600264	
	0.589574	
	0.575923	
	0.564576	
	0.562767	
	0.556846	
	0.549610	
	0.521158	
	0.485470	
	0.491884	
	0.426758	
	0.404555	
	0.438928	
	0.462117	
	0.434816	
	0.414916	
	0.479385	
	0.533986	
	0.485470	
	0.387451	
	0.371663	
	0.322818	
	0.289268	
	0.282032	
	0.270027	
	0.268217	
	0.289926	
	0.319529	
	0.310977	
	0.309662	
	0.362125	
	0.478727	
	0.556353	
	0.597139	
	0.604869	
	0.616381	
	0.637432	
	0.638254	
	0.636938	
	0.630689	
	0.639734	
	0.662594	
	0.676409	
	0.680027	
	0.659798	
	0.636938	
	0.627564	0.068582
	0.609473	
	0.585462	
	0.538591	
	0.339264	
	0.297491	
	0.288611	
	0.265422	
	0.241410	
	0.207860	
	0.186974	
	0.183191	
	0.183027	
	0.187961	
	0.186152	
	0.185165	
	0.185987	
	0.200460	
	0.236641	
	0.269862	
	0.268546	
	0.267724	
	0.270191	
	0.275289	
	0.314431	
	0.381038	
	0.522145	
	0.562931	
	0.577075	
	0.575430	
	0.590396	
	0.602895	
	0.623288	
	0.634143	
	0.645490	
	0.647628	
	0.629373	
	0.604211	
	0.588916	
	0.580364	
	0.569838	
	0.538098	
	0.522474	
	0.461623	
	0.360315	
	0.329397	
	0.289762	
	0.266079	
	0.247002	
	0.236970	
	0.226938	
	0.226773	
	0.232694	
	0.241904	
	0.239766	
	0.240095	
	0.247989	
	0.263119	
	0.271671	
	0.296505	
	0.333673	
	0.379393	
	0.458334	
	0.512113	
	0.546978	
	0.567043	
	0.570496	
	0.578390	
	0.580364	
	0.582502	
	0.585627	
	0.586613	
	0.594014	
	0.588916	
	0.585462	
	0.581022	
	0.572634	
	0.564082	
	0.563260	
	0.538426	
	0.527408	
	0.508330	
	0.503067	
	0.485470	
	0.379722	
	0.343540	
	0.315089	
	0.304563	
	0.284335	
	0.282361	
	0.267066	
	0.268053	
	0.267231	
	0.276605	
	0.284006	
	0.291078	
	0.305879	
	0.323970	
	0.330713	
	0.335975	
	0.356533	0.051894
	0.373637	
	0.431198	
	0.506686	
	0.557339	
	0.579542	
	0.584311	
	0.589245	
	0.594672	
	0.598948	
	0.606513	
	0.610296	
	0.606020	
	0.607664	
	0.603882	
	0.601415	
	0.592534	
	0.585462	
	0.584640	
	0.562767	
	0.536288	
	0.499120	
	0.490897	
	0.468695	
	0.385313	
	0.350119	
	0.314102	
	0.300123	
	0.302754	
	0.312951	
	0.297163	
	0.294696	
	0.285486	
	0.276769	
	0.279730	
	0.279072	
	0.272987	
	0.281374	
	0.297327	
	0.323805	
	0.343705	
	0.397484	
	0.473464	
	0.532670	
	0.578884	
	0.615394	
	0.633649	
	0.643681	
	0.655851	
	0.663910	
	0.673613	
	0.668679	
	0.668515	
	0.663417	
	0.652727	
	0.637432	
	0.628551	
	0.607829	
	0.601579	
	0.607171	
	0.604375	
	0.561286	
	0.400937	
	0.275289	
	0.222991	
	0.196842	
	0.186152	
	0.188290	
	0.188618	
	0.195855	
	0.215097	
	0.230556	
	0.231543	
	0.240095	
	0.253745	
	0.270191	
	0.280223	
	0.291242	
	0.294202	
	0.305879	
	0.344198	
	0.377913	
	0.383340	
	0.418863	
	0.521158	
	0.552406	
	0.569674	
	0.580528	
	0.577239	
	0.575430	
	0.596974	
	0.596974	
	0.600922	
	0.600099	
	0.595330	
	0.572799	
	0.550597	
	0.517704	
	0.532835	
	0.545169	
	0.557504	0.073957
	0.550432	
	0.442052	
	0.281045	
	0.242562	
	0.238943	
	0.242726	
	0.249304	
	0.248976	
	0.261968	
	0.279730	
	0.309168	
	0.316240	
	0.358835	
	0.392385	
	0.419357	
	0.518527	
	0.537604	
	0.546649	
	0.551583	
	0.539249	
	0.526256	
	0.553063	
	0.566385	
	0.570825	
	0.561615	
	0.549281	
	0.535137	
	0.518856	
	0.505205	
	0.511784	
	0.464255	
	0.493200	
	0.509975	
	0.537933	
	0.539084	
	0.545169	
	0.539578	
	0.544511	
	0.531190	
	0.514909	
	0.483825	
	0.467215	
	0.407351	
	0.332522	
	0.307359	
	0.290420	
	0.283677	
	0.282690	
	0.285650	
	0.279072	
	0.284335	
	0.280059	
	0.280059	
	0.283183	
	0.279565	
	0.281374	
	0.286966	
	0.285979	
	0.307195	
	0.351435	
	0.451920	
	0.497311	
	0.495831	
	0.547307	
	0.565069	
	0.578390	
	0.584804	
	0.584640	
	0.587271	
	0.602566	
	0.596810	
	0.603553	
	0.595823	
	0.596481	
	0.586449	
	0.575923	
	0.560464	
	0.560464	
	0.547965	
	0.539413	
	0.507508	
	0.442052	
	0.377913	
	0.328410	
	0.307030	
	0.290749	
	0.300452	
	0.316240	
	0.317885	
	0.306043	
	0.307359	
	0.286637	
	0.286473	
	0.293873	
	0.303248	
	0.315747	
	0.324299	
	0.318542	
	0.345021	
	0.353244	0.057049
	0.532177	
	0.578719	
	0.578061	
	0.595494	
	0.597139	
	0.611283	
	0.630196	
	0.643188	
	0.648615	
	0.660785	
	0.658483	
	0.655194	
	0.649273	
	0.639076	
	0.633320	
	0.619012	
	0.601744	
	0.592534	
	0.587929	
	0.569181	
	0.483168	
	0.349461	
	0.333837	
	0.278250	
	0.242562	
	0.220030	
	0.203749	
	0.208354	
	0.232036	
	0.243384	
	0.276605	
	0.298972	
	0.309826	
	0.296176	
	0.311471	
	0.309662	
	0.297985	
	0.276769	
	0.293873	
	0.300945	
	0.309826	
	0.314266	
	0.299465	
	0.324792	
	0.355217	
	0.382682	
	0.537275	
	0.583324	
	0.582173	
	0.595494	
	0.598948	
	0.606349	
	0.610954	
	0.617039	
	0.629373	
	0.613421	
	0.576088	
	0.583160	
	0.598619	
	0.593356	
	0.555859	
	0.397484	
	0.315582	
	0.283512	
	0.269040	
	0.255225	
	0.252594	
	0.241410	
	0.237792	
	0.231543	
	0.235325	
	0.237628	
	0.247166	
	0.254403	
	0.260981	
	0.269533	
	0.286637	
	0.282854	
	0.279401	
	0.301932	
	0.335317	
	0.363440	
	0.351435	
	0.462117	
	0.510797	
	0.554544	
	0.560958	
	0.575923	
	0.591876	
	0.606513	
	0.610954	
	0.614078	
	0.615559	
	0.607993	
	0.592534	
	0.580035	
	0.569510	
	0.567536	
	0.563753	
	0.559313	0.047755
	0.537933	
	0.525927	
	0.479714	
	0.363605	
	0.339922	
	0.321667	
	0.306701	
	0.289433	
	0.272493	
	0.256705	
	0.254896	
	0.253580	
	0.264435	
	0.275783	
	0.278578	
	0.287459	
	0.300945	
	0.295847	
	0.316240	
	0.349790	
	0.357191	
	0.386958	
	0.459321	
	0.542209	
	0.555695	
	0.566385	
	0.575923	
	0.576910	
	0.579048	
	0.589574	
	0.589409	
	0.600428	
	0.590725	
	0.587600	
	0.578226	
	0.573950	
	0.565234	
	0.559806	
	0.554544	
	0.559971	
	0.568194	
	0.554050	
	0.528394	
	0.374788	
	0.342060	
	0.341567	
	0.327917	
	0.337455	
	0.347981	
	0.305715	
	0.290091	
	0.280881	
	0.291406	
	0.300781	
	0.285157	
	0.282361	
	0.309990	
	0.369361	
	0.516718	
	0.551748	
	0.557668	
	0.550925	
	0.574443	
	0.591218	
	0.602566	
	0.598619	
	0.599606	
	0.598455	
	0.605691	
	0.620821	
	0.620821	
	0.629538	
	0.632662	
	0.629538	
	0.625426	
	0.586778	
	0.546649	
	0.509317	
	0.385642	
	0.328575	
	0.311635	
	0.350283	
	0.436954	
	0.394030	
	0.319694	
	0.280059	
	0.274303	
	0.273974	
	0.276769	
	0.280388	
	0.282032	
	0.292887	
	0.357355	
	0.477247	
	0.522638	
	0.463103	
	0.312293	
	0.286473	
	0.289104	
	0.326272	0.066685
	0.372157	
	0.394523	
	0.463597	
	0.447315	
	0.429225	
	0.520171	
	0.544183	
	0.577733	
	0.603717	
	0.634800	
	0.638583	
	0.640392	
	0.642695	
	0.650095	
	0.641543	
	0.607993	
	0.583160	
	0.567536	
	0.569674	
	0.551254	
	0.443697	
	0.281045	
	0.260159	
	0.257363	
	0.269040	
	0.266408	
	0.319365	
	0.425113	
	0.366401	
	0.336633	
	0.314760	
	0.294860	
	0.291735	
	0.304234	
	0.292064	
	0.261968	
	0.247166	
	0.242233	
	0.244206	
	0.244042	
	0.244371	
	0.244042	
	0.252594	
	0.285486	
	0.310813	
	0.336140	
	0.369361	
	0.465406	
	0.541716	
	0.581680	
	0.592205	
	0.599277	
	0.605526	
	0.607664	
	0.599441	
	0.594179	
	0.588258	
	0.598290	
	0.602237	
	0.610954	
	0.614243	
	0.603060	
	0.584640	
	0.553228	
	0.540893	
	0.495173	
	0.522309	
	0.524612	
	0.426758	
	0.373637	
	0.456032	
	0.357026	
	0.360809	
	0.326437	
	0.313609	
	0.265751	
	0.249304	
	0.239437	
	0.226609	
	0.230227	
	0.234010	
	0.244042	
	0.266573	
	0.313444	
	0.383504	
	0.533328	
	0.542538	
	0.513264	
	0.518033	
	0.570167	
	0.581515	
	0.586942	
	0.585956	
	0.572634	
	0.569510	
	0.576581	
	0.590396	
	0.610296	
	0.605691	
	0.572799	0.079395
	0.538920	
	0.526914	
	0.536617	
	0.508001	
	0.395675	
	0.312951	
	0.302754	
	0.309497	
	0.347488	
	0.346336	
	0.338278	
	0.302919	
	0.286966	
	0.274796	
	0.268217	
	0.260488	
	0.265751	
	0.281539	
	0.308675	
	0.331206	
	0.361796	
	0.369361	
	0.452413	
	0.530861	
	0.532835	
	0.554544	
	0.584475	
	0.605526	
	0.605197	
	0.591547	
	0.595001	
	0.613092	
	0.618025	
	0.620328	
	0.629209	
	0.626413	
	0.599112	
	0.595001	
	0.601908	
	0.592863	
	0.575430	
	0.561122	
	0.515237	
	0.369525	
	0.355382	
	0.319036	
	0.315253	
	0.272165	
	0.239766	
	0.238943	
	0.269862	
	0.284828	
	0.294531	
	0.301274	
	0.298314	
	0.299301	
	0.304070	
	0.299301	
	0.316240	
	0.348968	
	0.555366	
	0.611940	
	0.631511	
	0.633649	
	0.638254	
	0.635623	
	0.624275	
	0.628058	
	0.632991	
	0.637432	
	0.630360	
	0.623124	
	0.607664	
	0.580857	
	0.485963	
	0.324627	
	0.282361	
	0.290584	
	0.287130	
	0.283677	
	0.273974	
	0.253580	
	0.246673	
	0.245686	
	0.243384	
	0.243713	
	0.236641	
	0.231378	
	0.237792	
	0.247002	
	0.266244	
	0.273809	
	0.283348	
	0.303083	
	0.296834	
	0.305221	
	0.361138	
	0.358342	
	0.418699	
	0.468366	0.113939
	0.469353	
	0.355053	
	0.334989	
	0.434158	
	0.528723	
	0.554215	
	0.559148	
	0.551912	
	0.551090	
	0.567372	
	0.579871	
	0.585133	
	0.571648	
	0.583653	
	0.602566	
	0.606842	
	0.609309	
	0.607993	
	0.592534	
	0.583653	
	0.578061	
	0.576088	
	0.564905	
	0.527243	
	0.498134	
	0.438599	
	0.493529	
	0.522474	
	0.503232	
	0.372157	
	0.306866	
	0.277756	
	0.277427	
	0.265586	
	0.256870	
	0.241904	
	0.237792	
	0.248153	
	0.265915	
	0.272493	
	0.311635	
	0.377913	
	0.494186	
	0.555695	
	0.567865	
	0.568687	
	0.560300	
	0.582995	
	0.588916	
	0.597139	
	0.589574	
	0.587929	
	0.596152	
	0.629209	
	0.634307	
	0.620328	
	0.600757	
	0.579542	
	0.548787	
	0.502903	
	0.358013	
	0.341402	
	0.343212	
	0.288282	
	0.266902	
	0.252429	
	0.259172	
	0.259008	
	0.256376	
	0.242891	
	0.266244	
	0.319200	
	0.381366	
	0.432514	
	0.358342	
	0.363934	
	0.461788	
	0.534315	
	0.558984	
	0.581022	
	0.591218	
	0.588587	
	0.575923	
	0.584640	
	0.605855	
	0.616052	
	0.594508	
	0.555695	
	0.485141	
	0.389425	
	0.392550	
	0.406529	
	0.392056	
	0.363276	
	0.352750	
	0.359822	
	0.358342	
	0.407845	
	0.404555	
	0.451098	0.095954
	0.512113	
	0.502738	
	0.409654	
	0.322325	
	0.298972	
	0.279401	
	0.296998	
	0.320516	
	0.435474	
	0.510797	
	0.504876	
	0.495338	
	0.534315	
	0.526256	
	0.497311	
	0.522803	
	0.515566	
	0.372650	
	0.316240	
	0.301603	
	0.306701	
	0.316569	
	0.342225	
	0.448960	
	0.548294	
	0.594179	
	0.616381	
	0.620657	
	0.630360	
	0.639241	
	0.629702	
	0.623453	
	0.603060	
	0.570496	
	0.537933	
	0.487444	
	0.453236	
	0.488595	
	0.494680	
	0.515895	
	0.525763	
	0.518198	
	0.450275	
	0.308510	
	0.282197	
	0.266737	
	0.265915	
	0.250291	
	0.243055	
	0.234174	
	0.238450	
	0.249469	
	0.261803	
	0.258514	
	0.256047	
	0.262297	
	0.285815	
	0.291900	
	0.306537	
	0.299301	
	0.303412	
	0.304399	
	0.288446	
	0.296998	
	0.324463	
	0.361138	
	0.413765	
	0.533328	
	0.570003	
	0.600099	
	0.615887	
	0.630031	
	0.628715	
	0.626248	
	0.621479	
	0.604375	
	0.584475	
	0.582831	
	0.580857	
	0.574114	
	0.568358	
	0.552735	
	0.506850	
	0.341731	
	0.313609	
	0.282526	
	0.280881	
	0.273809	
	0.271013	
	0.258350	
	0.249798	
	0.249962	
	0.250291	
	0.257528	
	0.264764	
	0.278578	
	0.296340	
	0.310977	
	0.335975	
	0.359000	0.106967
	0.403240	
	0.456361	
	0.409983	
	0.486621	
	0.526585	
	0.562109	
	0.582337	
	0.597961	
	0.613914	
	0.616874	
	0.613092	
	0.618354	
	0.610625	
	0.604704	
	0.610625	
	0.619999	
	0.624604	
	0.615230	
	0.581351	
	0.556846	
	0.523461	
	0.456196	
	0.340745	
	0.307853	
	0.298643	
	0.310813	
	0.312786	
	0.296505	
	0.292558	
	0.280388	
	0.303083	
	0.322654	
	0.353244	
	0.393043	
	0.500272	
	0.549281	
	0.592041	
	0.612269	
	0.616545	
	0.613421	
	0.605197	
	0.576746	
	0.535795	
	0.509975	
	0.424455	
	0.426264	
	0.447809	
	0.518527	
	0.566878	
	0.569345	
	0.578061	
	0.594179	
	0.557010	
	0.460143	
	0.458170	
	0.552570	
	0.587765	
	0.602073	
	0.606184	
	0.596810	
	0.589409	
	0.594014	
	0.605855	
	0.599441	
	0.603882	
	0.585791	
	0.564740	
	0.499285	
	0.457183	
	0.332851	
	0.301767	
	0.303741	
	0.281374	
	0.261146	
	0.234832	
	0.202598	
	0.189605	
	0.189605	
	0.190263	
	0.195526	
	0.211807	
	0.234667	
	0.267066	
	0.339593	
	0.538426	
	0.596152	
	0.625920	
	0.642201	
	0.645161	
	0.646477	
	0.639405	
	0.628880	
	0.618354	
	0.611776	
	0.607007	
	0.588422	
	0.555366	
	0.550268	
	0.548623	
	0.545334	0.086554
	0.516718	
	0.380051	
	0.306701	
	0.287624	
	0.276276	
	0.256541	
	0.258679	
	0.250127	
	0.249140	
	0.240588	
	0.238615	
	0.241246	
	0.232858	
	0.220853	
	0.222004	
	0.234339	
	0.246673	
	0.262461	
	0.273974	
	0.286308	
	0.289433	
	0.300287	
	0.325450	
	0.386958	
	0.488595	
	0.528723	
	0.541387	
	0.549445	
	0.564905	
	0.569674	
	0.577075	
	0.585791	
	0.587600	
	0.589574	
	0.596317	
	0.600099	
	0.587600	
	0.576581	
	0.557010	
	0.540236	
	0.517704	
	0.485799	
	0.478234	
	0.386300	
	0.346336	
	0.316076	
	0.305550	
	0.304728	
	0.299629	
	0.274303	
	0.258679	
	0.256212	
	0.269698	
	0.283348	
	0.290420	
	0.313938	
	0.340580	
	0.337620	
	0.360315	
	0.451262	
	0.546649	
	0.569674	
	0.578719	
	0.603060	
	0.619012	
	0.629702	
	0.634800	
	0.639241	
	0.645490	
	0.644833	
	0.646806	
	0.650095	
	0.651904	
	0.649437	
	0.646806	
	0.634965	
	0.619670	
	0.609473	
	0.581022	
	0.510304	
	0.321503	
	0.276276	
	0.244535	
	0.229898	
	0.233352	
	0.227596	
	0.229898	
	0.229569	
	0.235161	
	0.232529	
	0.236148	
	0.244371	
	0.260981	
	0.274138	
	0.296834	
	0.313115	
	0.316569	
	0.360809	
	0.566714	
	0.605691	0.085572
	0.613914	
	0.619177	
	0.627893	
	0.648780	
	0.662594	
	0.663910	
	0.655851	
	0.667035	
	0.667857	
	0.656180	
	0.645819	
	0.636774	
	0.618190	
	0.613749	
	0.623617	
	0.629209	
	0.643023	
	0.648286	
	0.651411	
	0.636116	
	0.615230	
	0.550268	
	0.349954	
	0.273645	
	0.262955	
	0.244700	
	0.246838	
	0.241575	
	0.222826	
	0.206216	
	0.204078	
	0.224471	
	0.238779	
	0.243548	
	0.272165	
	0.298149	
	0.283183	
	0.262790	
	0.250785	
	0.247824	
	0.255883	
	0.295682	
	0.315747	
	0.315089	
	0.288117	
	0.292393	
	0.294696	
	0.355875	
	0.543854	
	0.579377	
	0.581022	
	0.578719	
	0.565398	
	0.544347	
	0.524447	
	0.474945	
	0.391070	
	0.362782	
	0.346665	
	0.322818	
	0.291406	
	0.277921	
	0.268053	
	0.251278	
	0.244042	
	0.233681	
	0.234503	
	0.230885	
	0.229240	
	0.228254	
	0.225458	
	0.229569	
	0.241575	
	0.255225	
	0.268711	
	0.280223	
	0.284828	
	0.289104	
	0.314924	
	0.348145	
	0.469353	
	0.544183	
	0.568852	
	0.579377	
	0.586120	
	0.598290	
	0.607993	
	0.609145	
	0.614407	
	0.610296	
	0.608816	
	0.591876	
	0.560629	
	0.510797	
	0.521487	
	0.554873	
	0.560958	
	0.572799	
	0.600757	
	0.606020	0.091644
	0.619177	
	0.617039	
	0.601908	
	0.562438	
	0.503232	
	0.361960	
	0.305879	
	0.268382	
	0.240753	
	0.221840	
	0.215919	
	0.224142	
	0.237463	
	0.249962	
	0.258679	
	0.263777	
	0.272493	
	0.276276	
	0.296340	
	0.320516	
	0.345021	
	0.426429	
	0.479056	
	0.524118	
	0.551419	
	0.568523	
	0.583653	
	0.602566	
	0.612927	
	0.617039	
	0.620328	
	0.625920	
	0.626906	
	0.625591	
	0.631511	
	0.635294	
	0.629044	
	0.617368	
	0.606513	
	0.595001	
	0.575759	
	0.541716	
	0.543854	
	0.527572	
	0.480207	
	0.325121	
	0.291571	
	0.271013	
	0.263613	
	0.277098	
	0.280881	
	0.277263	
	0.257856	
	0.246838	
	0.248811	
	0.272165	
	0.367881	
	0.559148	
	0.595330	
	0.606842	
	0.598455	
	0.611283	
	0.623453	
	0.635129	
	0.627235	
	0.625920	
	0.617697	
	0.612927	
	0.597139	
	0.601086	
	0.604869	
	0.591054	
	0.591547	
	0.600757	
	0.585956	
	0.579871	
	0.593850	
	0.609145	
	0.617697	
	0.607335	
	0.607007	
	0.594014	
	0.566714	
	0.549939	
	0.498791	
	0.348803	
	0.329890	
	0.324134	
	0.301932	
	0.267395	
	0.245193	
	0.227760	
	0.232365	
	0.256705	
	0.268382	
	0.286473	
	0.308510	
	0.468695	
	0.590725	
	0.617532	0.104714
	0.651904	
	0.680685	
	0.672955	
	0.647628	
	0.629867	
	0.624439	
	0.632662	
	0.630360	
	0.616216	
	0.610625	
	0.615230	
	0.635787	
	0.643681	
	0.652562	
	0.646148	
	0.618354	
	0.577733	
	0.593521	
	0.632005	
	0.665390	
	0.650589	
	0.617532	
	0.582831	
	0.523625	
	0.393537	
	0.282526	
	0.228747	
	0.169705	
	0.162469	
	0.164278	
	0.165265	
	0.166745	
	0.168061	
	0.169377	
	0.170857	
	0.171843	
	0.176777	
	0.215590	
	0.208518	
	0.213781	
	0.216577	
	0.254896	
	0.303741	
	0.320023	
	0.301110	
	0.299958	
	0.329726	
	0.432185	
	0.510961	
	0.545169	
	0.575595	
	0.574279	
	0.581186	
	0.581351	
	0.567207	
	0.537440	
	0.521158	
	0.524941	
	0.488266	
	0.496489	
	0.513922	
	0.520336	
	0.540893	
	0.531190	
	0.317391	
	0.252758	
	0.228582	
	0.211314	
	0.210492	
	0.215919	
	0.215426	
	0.239930	
	0.285321	
	0.324792	
	0.422646	
	0.520994	
	0.526750	
	0.474451	
	0.333673	
	0.299136	
	0.287624	
	0.267724	
	0.259830	
	0.295518	
	0.382847	
	0.562931	
	0.580199	
	0.582831	
	0.579871	
	0.586120	
	0.602895	
	0.607007	
	0.612105	
	0.611611	
	0.612105	
	0.612927	
	0.602073	
	0.578555	
	0.562767	
	0.546156	0.105361
	0.532999	
	0.508824	
	0.500765	
	0.509317	
	0.507672	
	0.399128	
	0.328739	
	0.310484	
	0.300781	
	0.297491	
	0.288282	
	0.298314	
	0.305550	
	0.350612	
	0.394852	
	0.468037	
	0.555201	
	0.582666	
	0.582009	
	0.572963	
	0.571154	
	0.571812	
	0.591547	
	0.615559	
	0.623946	
	0.620492	
	0.632662	
	0.637596	
	0.644175	
	0.649766	
	0.650753	
	0.657332	
	0.661936	
	0.670817	
	0.680027	
	0.674271	
	0.658976	
	0.644833	
	0.641708	
	0.633485	
	0.603882	
	0.458170	
	0.324956	
	0.284006	
	0.240095	
	0.196513	
	0.177600	
	0.168554	
	0.169048	
	0.170857	
	0.172172	
	0.173981	
	0.174968	
	0.239601	
	0.409160	
	0.560300	
	0.596481	
	0.599770	
	0.608487	
	0.620657	
	0.630031	
	0.637267	
	0.618848	
	0.581022	
	0.576910	
	0.570167	
	0.472149	
	0.339758	
	0.457347	
	0.526421	
	0.557175	
	0.555201	
	0.536782	
	0.363605	
	0.293873	
	0.267231	
	0.308346	
	0.362125	
	0.415410	
	0.377913	
	0.343705	
	0.309662	
	0.287953	
	0.294531	
	0.345021	
	0.486457	
	0.399786	
	0.379228	
	0.523296	
	0.509481	
	0.506357	
	0.544347	
	0.541222	
	0.435145	
	0.308839	
	0.295189	
	0.281045	
	0.285157	
	0.258679	
	0.239437	0.112416
	0.237463	
	0.254896	
	0.282690	
	0.270684	
	0.255554	
	0.244042	
	0.229734	
	0.234010	
	0.238450	
	0.238779	
	0.252758	
	0.269204	
	0.302754	
	0.342883	
	0.516389	
	0.546814	
	0.557668	
	0.555201	
	0.565234	
	0.564411	
	0.551748	
	0.529381	
	0.522474	
	0.449124	
	0.347488	
	0.313444	
	0.295518	
	0.285815	
	0.280059	
	0.269862	
	0.256870	
	0.257199	
	0.253580	
	0.262132	
	0.261146	
	0.258843	
	0.267231	
	0.279072	
	0.289104	
	0.293215	
	0.307853	
	0.339100	
	0.400115	
	0.530532	
	0.571319	
	0.594508	
	0.602402	
	0.617039	
	0.631840	
	0.648615	
	0.661608	
	0.663746	
	0.653713	
	0.637103	
	0.612434	
	0.582666	
	0.559148	
	0.546485	
	0.544676	
	0.556846	
	0.559642	
	0.554873	
	0.545169	
	0.533328	
	0.479714	
	0.377419	
	0.365907	
	0.355217	
	0.321832	
	0.290913	
	0.260323	
	0.257199	
	0.251442	
	0.254238	
	0.248647	
	0.261803	
	0.277921	
	0.300123	
	0.329068	
	0.405707	
	0.513922	
	0.525927	
	0.562109	
	0.575923	
	0.600099	
	0.620492	
	0.636116	
	0.649766	
	0.660621	
	0.674764	
	0.692197	
	0.693842	
	0.695980	
	0.690059	
	0.686606	
	0.679534	
	0.662265	
	0.658318	
	0.659305	
	0.645490	0.121096
	0.610460	
	0.597797	
	0.631676	
	0.650424	
	0.639241	
	0.607993	
	0.504383	
	0.277756	
	0.219373	
	0.229076	
	0.265257	
	0.286966	
	0.248976	
	0.231543	
	0.234832	
	0.257692	
	0.249962	
	0.248318	
	0.244042	
	0.252100	
	0.258514	
	0.282197	
	0.296505	
	0.270027	
	0.255883	
	0.241410	
	0.246015	
	0.278250	
	0.445835	
	0.588751	
	0.627729	
	0.638419	
	0.625262	
	0.593192	
	0.605855	
	0.612763	
	0.611940	
	0.606513	
	0.581515	
	0.396168	
	0.304070	
	0.306043	
	0.307688	
	0.320516	
	0.313609	
	0.291735	
	0.246180	
	0.221346	
	0.238450	
	0.247989	
	0.233681	
	0.243548	
	0.243548	
	0.246344	
	0.252265	
	0.255718	
	0.258843	
	0.254896	
	0.225622	
	0.210821	
	0.215590	
	0.236805	
	0.295353	
	0.329726	
	0.418863	
	0.481030	
	0.435803	
	0.534479	
	0.572634	
	0.595001	
	0.598455	
	0.584804	
	0.576746	
	0.535960	
	0.320845	
	0.301274	
	0.295518	
	0.295847	
	0.315089	
	0.298478	
	0.294696	
	0.289597	
	0.297163	
	0.296340	
	0.284499	
	0.274631	
	0.265422	
	0.259830	
	0.259830	
	0.261475	
	0.254567	
	0.256376	
	0.256705	
	0.267724	
	0.280059	
	0.292887	
	0.299958	
	0.288611	
	0.279401	
	0.286637	0.098105
	0.297327	
	0.319365	
	0.379064	
	0.533657	
	0.576581	
	0.591876	
	0.601579	
	0.602073	
	0.605362	
	0.608487	
	0.606678	
	0.605691	
	0.619999	
	0.618190	
	0.620163	
	0.621644	
	0.621808	
	0.617368	
	0.613092	
	0.605197	
	0.571812	
	0.509481	
	0.390576	
	0.356862	
	0.307853	
	0.277263	
	0.268382	
	0.275618	
	0.280881	
	0.277098	
	0.267066	
	0.266408	
	0.265257	
	0.283512	
	0.306537	
	0.311800	
	0.311964	
	0.326437	
	0.329068	
	0.395181	
	0.528723	
	0.568029	
	0.579542	
	0.590396	
	0.619834	
	0.632005	
	0.647464	
	0.658647	
	0.667364	
	0.670653	
	0.675916	
	0.670488	
	0.663910	
	0.643352	
	0.641543	
	0.638912	
	0.634472	
	0.632991	
	0.635458	
	0.627235	
	0.613256	
	0.604540	
	0.603060	
	0.607500	
	0.595988	
	0.545334	
	0.368210	
	0.438599	
	0.393537	
	0.343540	
	0.300781	
	0.277592	
	0.247660	
	0.238943	
	0.217892	
	0.190263	
	0.181876	
	0.187632	
	0.206545	
	0.235161	
	0.261310	
	0.296340	
	0.334002	
	0.446328	
	0.563260	
	0.561122	
	0.526092	
	0.552570	
	0.595001	
	0.623288	
	0.631676	
	0.625591	
	0.610131	
	0.608980	
	0.611776	
	0.614572	
	0.612105	
	0.589245	
	0.549445	
	0.485963	0.135900
	0.460472	
	0.371499	
	0.514909	
	0.608158	
	0.590067	
	0.545005	
	0.589574	
	0.541880	
	0.319858	
	0.343047	
	0.559642	
	0.600593	
	0.592863	
	0.573621	
	0.549116	
	0.377913	
	0.373966	
	0.541551	
	0.442546	
	0.294696	
	0.257528	
	0.228911	
	0.245686	
	0.260981	
	0.273480	
	0.283348	
	0.278250	
	0.243548	
	0.232858	
	0.232036	
	0.231214	
	0.229569	
	0.272658	
	0.418535	
	0.587436	
	0.639570	
	0.660950	
	0.646971	
	0.639899	
	0.619670	
	0.595823	
	0.460637	
	0.290091	
	0.275454	
	0.233845	
	0.208189	
	0.186480	
	0.180067	
	0.179244	
	0.180231	
	0.177600	
	0.178751	
	0.179738	
	0.182533	
	0.218057	
	0.242068	
	0.243219	
	0.258021	
	0.272329	
	0.278250	
	0.274138	
	0.280388	
	0.298807	
	0.315911	
	0.374788	
	0.436625	
	0.464912	
	0.514744	
	0.563260	
	0.581680	
	0.599277	
	0.594014	
	0.596646	
	0.601250	
	0.606678	
	0.602566	
	0.596646	
	0.581022	
	0.571976	
	0.539578	
	0.518527	
	0.500929	
	0.493200	
	0.432020	
	0.341896	
	0.346665	
	0.340580	
	0.339100	
	0.322490	
	0.309662	
	0.283019	
	0.289268	
	0.287624	
	0.304563	
	0.308181	
	0.304563	
	0.305879	
	0.332851	
	0.345350	
	0.378077	0.090958
	0.439421	
	0.468202	
	0.508001	
	0.532341	
	0.567865	
	0.580857	
	0.584147	
	0.584969	
	0.594508	
	0.591876	
	0.608158	
	0.604869	
	0.613585	
	0.605197	
	0.600593	
	0.593850	
	0.587929	
	0.577075	
	0.572141	
	0.552899	
	0.540071	
	0.493200	
	0.416068	
	0.353737	
	0.324627	
	0.327423	
	0.330713	
	0.331699	
	0.328739	
	0.311471	
	0.282854	
	0.272987	
	0.289926	
	0.314266	
	0.334989	
	0.361302	
	0.359987	
	0.390083	
	0.445342	
	0.552241	
	0.580693	
	0.603717	
	0.615394	
	0.620821	
	0.636445	
	0.641872	
	0.651411	
	0.660456	
	0.654536	
	0.634636	
	0.628880	
	0.625426	
	0.621150	
	0.616874	
	0.622795	
	0.628386	
	0.636281	
	0.633156	
	0.635787	
	0.630196	
	0.630689	
	0.622630	
	0.617861	
	0.622795	
	0.591876	
	0.563918	
	0.337949	
	0.284335	
	0.286308	
	0.293051	
	0.309662	
	0.376926	
	0.492377	
	0.557504	
	0.442875	
	0.321667	
	0.290749	
	0.275125	
	0.319365	
	0.500107	
	0.570167	
	0.582009	
	0.556846	
	0.575595	
	0.590232	
	0.610296	
	0.640721	
	0.642695	
	0.660621	
	0.668515	
	0.670653	
	0.663746	
	0.645984	
	0.631182	
	0.616874	
	0.593685	
	0.511290	
	0.276605	
	0.255061	
	0.247989	0.122605
	0.245851	
	0.253745	
	0.245686	
	0.229734	
	0.209998	
	0.209505	
	0.215097	
	0.240259	
	0.300123	
	0.366894	
	0.393043	
	0.350941	
	0.278085	
	0.249798	
	0.253580	
	0.247989	
	0.217235	
	0.210985	
	0.198486	
	0.197335	
	0.206380	
	0.228089	
	0.248153	
	0.275947	
	0.319529	
	0.291242	
	0.256541	
	0.228089	
	0.210656	
	0.220524	
	0.277756	
	0.304070	
	0.296998	
	0.325614	
	0.415410	
	0.551912	
	0.552241	
	0.521487	
	0.444519	
	0.297491	
	0.281703	
	0.279072	
	0.287624	
	0.293051	
	0.276934	
	0.268217	
	0.260159	
	0.257363	
	0.257856	
	0.259172	
	0.250785	
	0.251771	
	0.245522	
	0.246015	
	0.255718	
	0.259501	
	0.272822	
	0.290584	
	0.290584	
	0.319036	
	0.381695	
	0.464912	
	0.486621	
	0.502738	
	0.567700	
	0.579542	
	0.595988	
	0.609473	
	0.615065	
	0.606842	
	0.610460	
	0.606842	
	0.605691	
	0.597303	
	0.602237	
	0.603060	
	0.593356	
	0.583653	
	0.563918	
	0.524612	
	0.512606	
	0.502738	
	0.461459	
	0.403733	
	0.327917	
	0.307688	
	0.298643	
	0.293873	
	0.294531	
	0.310155	
	0.299465	
	0.303577	
	0.299629	
	0.306866	
	0.310977	
	0.321503	
	0.336140	
	0.358506	
	0.343212	
	0.360480	0.133225
	0.392221	
	0.414752	
	0.483003	
	0.524118	
	0.554873	
	0.562273	
	0.571483	
	0.578390	
	0.596810	
	0.613092	
	0.624275	
	0.619341	
	0.618848	
	0.617861	
	0.621972	
	0.637267	
	0.649602	
	0.646806	
	0.635787	
	0.637596	
	0.653549	
	0.653549	
	0.648286	
	0.656016	
	0.656509	
	0.658318	
	0.646148	
	0.637925	
	0.626084	
	0.629538	
	0.629209	
	0.645326	
	0.646971	
	0.620821	
	0.583160	
	0.568358	
	0.541880	
	0.473464	
	0.341402	
	0.280881	
	0.257856	
	0.258679	
	0.226444	
	0.212301	
	0.237463	
	0.249304	
	0.281374	
	0.359822	
	0.314266	
	0.328739	
	0.517047	
	0.560958	
	0.572634	
	0.553228	
	0.544676	
	0.590067	
	0.630031	
	0.636609	
	0.666870	
	0.678711	
	0.678711	
	0.675587	
	0.677231	
	0.682823	
	0.670817	
	0.635787	
	0.502903	
	0.263777	
	0.230720	
	0.197499	
	0.188618	
	0.195526	
	0.200460	
	0.196842	
	0.196184	
	0.194704	
	0.197170	
	0.182205	
	0.171350	
	0.167403	
	0.167403	
	0.168225	
	0.169377	
	0.170528	
	0.172008	
	0.172995	
	0.173981	
	0.213288	
	0.247331	
	0.261968	
	0.301603	
	0.398964	
	0.545334	
	0.543360	
	0.303905	
	0.249469	
	0.233516	
	0.220359	
	0.218879	
	0.202927	0.132770
	0.200953	
	0.244535	
	0.301439	
	0.562602	
	0.624768	
	0.640721	
	0.639734	
	0.642695	
	0.649273	
	0.632169	
	0.593356	
	0.601579	
	0.615559	
	0.588751	
	0.571483	
	0.571319	
	0.582009	
	0.559148	
	0.483003	
	0.447973	
	0.435638	
	0.348639	
	0.344856	
	0.375117	
	0.388109	
	0.314924	
	0.321009	
	0.351435	
	0.413436	
	0.403404	
	0.378242	
	0.427415	
	0.534150	
	0.565069	
	0.586613	
	0.592863	
	0.591218	
	0.583982	
	0.572141	
	0.552899	
	0.529874	
	0.459156	
	0.401595	
	0.361467	
	0.316569	
	0.308839	
	0.289104	
	0.280388	
	0.272658	
	0.278578	
	0.272165	
	0.274467	
	0.275125	
	0.272822	
	0.272493	
	0.280388	
	0.278250	
	0.284499	
	0.287788	
	0.289433	
	0.296011	
	0.326437	
	0.406858	
	0.523132	
	0.558326	
	0.565234	
	0.575266	
	0.584969	
	0.594179	
	0.599441	
	0.615065	
	0.617368	
	0.610954	
	0.597797	
	0.594343	
	0.601250	
	0.617203	
	0.625591	
	0.621644	
	0.608158	
	0.604704	
	0.609309	
	0.612927	
	0.613421	
	0.593192	
	0.582337	
	0.579542	
	0.588094	
	0.591712	
	0.603882	
	0.565727	
	0.521487	
	0.529710	
	0.495502	
	0.426100	
	0.514744	
	0.470998	
	0.422646	
	0.418863	
	0.440737	0.132182
	0.493200	
	0.585627	
	0.555366	
	0.519020	
	0.534973	
	0.567043	
	0.571483	
	0.570990	
	0.592041	
	0.596317	
	0.616052	
	0.620328	
	0.581351	
	0.529546	
	0.410147	
	0.363111	
	0.461952	
	0.421988	
	0.307688	
	0.297491	
	0.492377	
	0.624933	
	0.687428	
	0.717524	
	0.720484	
	0.705354	
	0.674435	
	0.654207	
	0.640721	
	0.635294	
	0.636116	
	0.632498	
	0.579213	
	0.318214	
	0.226444	
	0.227431	
	0.282526	
	0.332686	
	0.295518	
	0.309004	
	0.404884	
	0.373472	
	0.323805	
	0.318707	
	0.322490	
	0.305550	
	0.327423	
	0.343376	
	0.326930	
	0.292887	
	0.308510	
	0.356204	
	0.317556	
	0.240259	
	0.184178	
	0.161318	
	0.161647	
	0.163127	
	0.164607	
	0.166416	
	0.168225	
	0.169870	
	0.171515	
	0.174146	
	0.239437	
	0.237957	
	0.234996	
	0.274960	
	0.333673	
	0.430376	
	0.331699	
	0.306208	
	0.277427	
	0.252100	
	0.258185	
	0.273974	
	0.307524	
	0.336633	
	0.319858	
	0.321667	
	0.332851	
	0.335317	
	0.415081	
	0.477412	
	0.515402	
	0.521816	
	0.552570	
	0.566714	
	0.580364	
	0.585133	
	0.587765	
	0.576252	
	0.574279	
	0.578555	
	0.587929	
	0.589903	
	0.585133	
	0.578719	
	0.577733	
	0.566385	0.165698
	0.560135	
	0.547636	
	0.528888	
	0.522145	
	0.476425	
	0.397648	
	0.354230	
	0.355053	
	0.344856	
	0.321832	
	0.296176	
	0.276769	
	0.273645	
	0.276276	
	0.277263	
	0.280716	
	0.295518	
	0.321832	
	0.357026	
	0.450769	
	0.498134	
	0.524776	
	0.508330	
	0.497640	
	0.535302	
	0.542702	
	0.552735	
	0.556024	
	0.564411	
	0.575266	
	0.584475	
	0.582502	
	0.586778	
	0.587600	
	0.592041	
	0.591054	
	0.582502	
	0.577733	
	0.571648	
	0.563096	
	0.568194	
	0.558162	
	0.550597	
	0.536124	
	0.503232	
	0.492542	
	0.404391	
	0.385313	
	0.326930	
	0.300123	
	0.269533	
	0.253745	
	0.249962	
	0.250785	
	0.257034	
	0.263777	
	0.277921	
	0.296505	
	0.293215	
	0.303083	
	0.323641	
	0.345021	
	0.389425	
	0.426264	
	0.521651	
	0.563918	
	0.618848	
	0.649602	
	0.668515	
	0.675422	
	0.680192	
	0.683645	
	0.676902	
	0.676738	
	0.674929	
	0.670324	
	0.659141	
	0.642695	
	0.638090	
	0.614901	
	0.595494	
	0.554215	
	0.334660	
	0.253252	
	0.237134	
	0.249633	
	0.272165	
	0.313609	
	0.486457	
	0.412778	
	0.485963	
	0.586120	
	0.557010	
	0.280223	
	0.222826	
	0.198651	
	0.188618	
	0.182040	
	0.203749	
	0.244864	0.088597
	0.289762	
	0.426758	
	0.568358	
	0.610460	
	0.637925	
	0.665719	
	0.686441	
	0.696802	
	0.700091	
	0.701407	
	0.701900	
	0.680356	
	0.654536	
	0.654207	
	0.664897	
	0.652069	
	0.627564	
	0.609638	
	0.603060	
	0.555530	
	0.316404	
	0.243713	
	0.237463	
	0.249633	
	0.235819	
	0.217399	
	0.217728	
	0.226773	
	0.206709	
	0.175462	
	0.162469	
	0.163127	
	0.165101	
	0.166087	
	0.167568	
	0.169048	
	0.170034	
	0.208025	
	0.214274	
	0.211314	
	0.214110	
	0.213288	
	0.223155	
	0.242726	
	0.275289	
	0.290584	
	0.333508	
	0.456361	
	0.545992	
	0.548623	
	0.526092	
	0.488430	
	0.485306	
	0.510961	
	0.551583	
	0.570332	
	0.577239	
	0.576746	
	0.583324	
	0.585627	
	0.579871	
	0.570167	
	0.545334	
	0.451427	
	0.321996	
	0.294696	
	0.271342	
	0.270520	
	0.266902	
	0.271671	
	0.273974	
	0.276769	
	0.278743	
	0.289104	
	0.315747	
	0.303905	
	0.288446	
	0.280223	
	0.284335	
	0.301274	
	0.328246	
	0.395017	
	0.513099	
	0.530368	
	0.542209	
	0.543689	
	0.553392	
	0.562109	
	0.577075	
	0.588094	
	0.602402	
	0.602566	
	0.600593	
	0.598455	
	0.599770	
	0.599112	
	0.595494	
	0.585133	
	0.582173	
	0.575430	0.125191
	0.571483	
	0.550268	
	0.503561	
	0.438763	
	0.336469	
	0.303248	
	0.286473	
	0.288775	
	0.288117	
	0.286802	
	0.281703	
	0.274796	
	0.255718	
	0.244535	
	0.241739	
	0.234339	
	0.238450	
	0.248976	
	0.264928	
	0.303905	
	0.395346	
	0.549939	
	0.599935	
	0.626248	
	0.640557	
	0.648451	
	0.655029	
	0.658647	
	0.656345	
	0.642201	
	0.629867	
	0.607829	
	0.560629	
	0.491884	
	0.459321	
	0.514415	
	0.548952	
	0.569345	
	0.600264	
	0.602566	
	0.587929	
	0.577075	
	0.569016	
	0.584804	
	0.606020	
	0.623124	
	0.590889	
	0.560793	
	0.563753	
	0.576581	
	0.574937	
	0.593521	
	0.622959	
	0.655358	
	0.661279	
	0.647793	
	0.636774	
	0.619506	
	0.550103	
	0.287624	
	0.261968	
	0.275289	
	0.293380	
	0.279565	
	0.256047	
	0.225622	
	0.208518	
	0.211314	
	0.218057	
	0.241081	
	0.287953	
	0.455538	
	0.603717	
	0.622959	
	0.621315	
	0.607829	
	0.597468	
	0.595001	
	0.626413	
	0.647135	
	0.609638	
	0.458663	
	0.257692	
	0.240259	
	0.223484	
	0.216083	
	0.241739	
	0.290420	
	0.349954	
	0.554544	
	0.525105	
	0.371170	
	0.353408	
	0.317062	
	0.254238	
	0.225787	
	0.202762	
	0.198322	
	0.191908	
	0.188454	0.098093
	0.190263	
	0.203091	
	0.214274	
	0.220359	
	0.243219	
	0.271507	
	0.301932	
	0.334824	
	0.395346	
	0.403569	
	0.426264	
	0.495996	
	0.553392	
	0.598126	
	0.604540	
	0.589903	
	0.568194	
	0.547143	
	0.520994	
	0.491391	
	0.484483	
	0.485470	
	0.474287	
	0.416890	
	0.346172	
	0.318214	
	0.300287	
	0.294202	
	0.295682	
	0.295189	
	0.286637	
	0.277427	
	0.274796	
	0.281045	
	0.292064	
	0.290584	
	0.278578	
	0.280059	
	0.287295	
	0.302590	
	0.317556	
	0.337784	
	0.362947	
	0.466886	
	0.530203	
	0.540236	
	0.564905	
	0.573785	
	0.587929	
	0.592863	
	0.599277	
	0.603882	
	0.603882	
	0.607829	
	0.610296	
	0.606842	
	0.603553	
	0.596974	
	0.590232	
	0.575266	
	0.561615	
	0.544347	
	0.525105	
	0.495338	
	0.400279	
	0.339100	
	0.313444	
	0.300781	
	0.284828	
	0.285321	
	0.283677	
	0.283348	
	0.286637	
	0.289433	
	0.305879	
	0.310155	
	0.326108	
	0.330055	
	0.334989	
	0.338771	
	0.335811	
	0.349461	
	0.381695	
	0.501258	
	0.533164	
	0.547143	
	0.557997	
	0.572799	
	0.595988	
	0.604540	
	0.603388	
	0.605691	
	0.604540	
	0.597303	
	0.589409	
	0.595330	
	0.607335	
	0.624604	
	0.634800	
	0.636281	0.102203
	0.624439	
	0.598619	
	0.567372	
	0.561944	
	0.511290	
	0.334660	
	0.285486	
	0.267066	
	0.255061	
	0.254238	
	0.243548	
	0.237299	
	0.239108	
	0.248811	
	0.263119	
	0.285157	
	0.291406	
	0.292229	
	0.297327	
	0.318214	
	0.347981	
	0.513264	
	0.569181	
	0.588094	
	0.601744	
	0.606842	
	0.608651	
	0.610131	
	0.625262	
	0.645161	
	0.657332	
	0.657167	
	0.652727	
	0.675422	
	0.692362	
	0.692855	
	0.673778	
	0.663581	
	0.662430	
	0.667199	
	0.667857	
	0.658812	
	0.660127	
	0.660127	
	0.644668	
	0.620328	
	0.583818	
	0.540564	
	0.490568	
	0.333015	
	0.300287	
	0.272000	
	0.211643	
	0.171186	
	0.161647	
	0.162963	
	0.163949	
	0.165594	
	0.166581	
	0.167568	
	0.169048	
	0.183191	
	0.237792	
	0.234174	
	0.258350	
	0.331535	
	0.545169	
	0.610625	
	0.639899	
	0.663746	
	0.680685	
	0.674764	
	0.651740	
	0.626577	
	0.599441	
	0.589574	
	0.597139	
	0.579542	
	0.407845	
	0.259008	
	0.234339	
	0.217728	
	0.204407	
	0.209505	
	0.214932	
	0.221840	
	0.217235	
	0.214439	
	0.217399	
	0.226444	
	0.228254	
	0.225622	
	0.231378	
	0.232694	
	0.250949	
	0.250949	
	0.246509	
	0.261968	
	0.286637	
	0.320023	0.091415
	0.376104	
	0.369854	
	0.371663	
	0.430869	
	0.480865	
	0.504712	
	0.532012	
	0.547636	
	0.540729	
	0.532835	
	0.545334	
	0.570990	
	0.577239	
	0.582831	
	0.587107	
	0.593685	
	0.596974	
	0.593521	
	0.583653	
	0.566878	
	0.552077	
	0.532999	
	0.503890	
	0.441066	
	0.358013	
	0.317391	
	0.303741	
	0.293380	
	0.287624	
	0.281045	
	0.277921	
	0.272329	
	0.270355	
	0.267889	
	0.272329	
	0.274303	
	0.281539	
	0.296340	
	0.305879	
	0.314102	
	0.338113	
	0.382847	
	0.494351	
	0.508495	
	0.532670	
	0.555037	
	0.568687	
	0.577239	
	0.593850	
	0.607664	
	0.623124	
	0.630853	
	0.623617	
	0.617203	
	0.602566	
	0.595330	
	0.587436	
	0.582337	
	0.577239	
	0.556517	
	0.533986	
	0.508988	
	0.441395	
	0.372157	
	0.323641	
	0.305879	
	0.282690	
	0.277756	
	0.273974	
	0.275289	
	0.278743	
	0.320187	
	0.424620	
	0.422317	
	0.396497	
	0.340909	
	0.310648	
	0.339100	
	0.376597	
	0.511784	
	0.564740	
	0.581515	
	0.582995	
	0.579542	
	0.568358	
	0.570496	
	0.605691	
	0.615559	
	0.608322	
	0.597797	
	0.599770	
	0.615065	
	0.633156	
	0.666377	
	0.687757	
	0.695322	
	0.675093	
	0.650589	
	0.619177	
	0.579542	0.148037
	0.475602	
	0.391727	
	0.445342	
	0.518198	
	0.587600	
	0.623617	
	0.630853	
	0.627564	
	0.632334	
	0.638254	
	0.615065	
	0.568358	
	0.488430	
	0.276934	
	0.253580	
	0.234832	
	0.255225	
	0.286966	
	0.291900	
	0.321832	
	0.387780	
	0.542867	
	0.538920	
	0.372157	
	0.321996	
	0.300452	
	0.253416	
	0.216083	
	0.212465	
	0.211150	
	0.219537	
	0.235325	
	0.238286	
	0.251278	
	0.263448	
	0.298807	
	0.342060	
	0.392056	
	0.389425	
	0.433994	
	0.535631	
	0.453729	
	0.303577	
	0.274303	
	0.265586	
	0.262297	
	0.253252	
	0.235983	
	0.230392	
	0.226773	
	0.228254	
	0.214110	
	0.222991	
	0.232858	
	0.242068	
	0.241246	
	0.240259	
	0.251771	
	0.272329	
	0.282526	
	0.314924	
	0.356368	
	0.371170	
	0.341238	
	0.330877	
	0.341402	
	0.459156	
	0.557997	
	0.587436	
	0.599935	
	0.609309	
	0.617368	
	0.626742	
	0.619012	
	0.605197	
	0.592698	
	0.587271	
	0.573457	
	0.563753	
	0.559642	
	0.550925	
	0.546156	
	0.539907	
	0.535631	
	0.493693	
	0.340251	
	0.307853	
	0.296176	
	0.291900	
	0.291571	
	0.291242	
	0.272822	
	0.277756	
	0.279072	
	0.286637	
	0.295518	
	0.304070	
	0.314595	
	0.327423	
	0.342718	0.071666
	0.411463	
	0.501258	
	0.535960	
	0.538098	
	0.532506	
	0.546649	
	0.574279	
	0.591547	
	0.598455	
	0.602895	
	0.604704	
	0.613585	
	0.614901	
	0.613421	
	0.601086	
	0.590232	
	0.576088	
	0.537111	
	0.499778	
	0.482839	
	0.495831	
	0.535631	
	0.540564	
	0.533493	
	0.467544	
	0.346665	
	0.321338	
	0.284170	
	0.270849	
	0.269862	
	0.260981	
	0.253087	
	0.247824	
	0.244535	
	0.244371	
	0.243384	
	0.248482	
	0.256541	
	0.271671	
	0.287788	
	0.299958	
	0.296669	
	0.309168	
	0.322654	
	0.354724	
	0.467544	
	0.542209	
	0.565398	
	0.577239	
	0.589080	
	0.602237	
	0.620163	
	0.622959	
	0.631347	
	0.641872	
	0.644504	
	0.641872	
	0.638419	
	0.648780	
	0.669502	
	0.683974	
	0.690882	
	0.677889	
	0.662594	
	0.640721	
	0.637432	
	0.642695	
	0.647957	
	0.629538	
	0.592698	
	0.566714	
	0.550103	
	0.544511	
	0.477247	
	0.285157	
	0.242562	
	0.211972	
	0.183191	
	0.176942	
	0.171679	
	0.171843	
	0.174475	
	0.188618	
	0.209341	
	0.235490	
	0.280223	
	0.330548	
	0.345185	
	0.393537	
	0.527079	
	0.544511	
	0.561780	
	0.579048	
	0.593192	
	0.605197	
	0.620328	
	0.628058	
	0.638747	
	0.626906	
	0.605526	0.099916
	0.596810	
	0.588258	
	0.558162	
	0.539249	
	0.534644	
	0.584969	
	0.594014	
	0.599770	
	0.619341	
	0.655029	
	0.680685	
	0.697624	
	0.693020	
	0.644668	
	0.606020	
	0.576417	
	0.544183	
	0.498298	
	0.366401	
	0.291735	
	0.251771	
	0.251442	
	0.276112	
	0.313938	
	0.387287	
	0.548294	
	0.522967	
	0.284499	
	0.241246	
	0.205887	
	0.187303	
	0.190756	
	0.197828	
	0.216412	
	0.231707	
	0.243713	
	0.248318	
	0.249140	
	0.251771	
	0.257363	
	0.256047	
	0.261803	
	0.261475	
	0.265915	
	0.267889	
	0.259994	
	0.256212	
	0.248482	
	0.247495	
	0.246673	
	0.245193	
	0.236641	
	0.242562	
	0.242397	
	0.246673	
	0.249469	
	0.252265	
	0.263448	
	0.280223	
	0.289926	
	0.307853	
	0.330713	
	0.369690	
	0.404062	
	0.434652	
	0.489911	
	0.522145	
	0.553063	
	0.573128	
	0.590725	
	0.595330	
	0.600264	
	0.599770	
	0.602402	
	0.605855	
	0.605855	
	0.596317	
	0.588587	
	0.579706	
	0.576417	
	0.558491	
	0.532341	
	0.503890	
	0.454058	
	0.394523	
	0.331864	
	0.313773	
	0.305386	
	0.303083	
	0.298314	
	0.292064	
	0.277263	
	0.288940	
	0.284499	
	0.281374	
	0.287624	
	0.295353	
	0.293873	
	0.296176	
	0.308181	0.179357
	0.331535	
	0.342389	
	0.376597	
	0.404555	
	0.475274	
	0.528065	
	0.547307	
	0.568194	
	0.573457	
	0.580528	
	0.584147	
	0.593027	
	0.591876	
	0.595823	
	0.593685	
	0.596317	
	0.591876	
	0.586285	
	0.578555	
	0.574114	
	0.558491	
	0.548623	
	0.528723	
	0.509810	
	0.496489	
	0.392714	
	0.348639	
	0.326108	
	0.308675	
	0.304892	
	0.317391	
	0.302919	
	0.313938	
	0.334824	
	0.365578	
	0.427415	
	0.459485	
	0.478563	
	0.489253	
	0.517540	
	0.557504	
	0.566878	
	0.575101	
	0.586449	
	0.598290	
	0.598455	
	0.578061	
	0.545334	
	0.540071	
	0.573621	
	0.603882	
	0.631182	
	0.649437	
	0.657003	
	0.659634	
	0.660785	
	0.669666	
	0.664074	
	0.659470	
	0.653056	
	0.641872	
	0.643188	
	0.658812	
	0.670159	
	0.662594	
	0.643846	
	0.617039	
	0.564082	
	0.402746	
	0.286637	
	0.234174	
	0.217728	
	0.243713	
	0.251442	
	0.253745	
	0.277592	
	0.311964	
	0.317720	
	0.278743	
	0.239272	
	0.227431	
	0.242397	
	0.229405	
	0.217399	
	0.205393	
	0.209505	
	0.230063	
	0.260323	
	0.265257	
	0.266079	
	0.266902	
	0.303248	
	0.320187	
	0.407187	
	0.420508	
	0.389261	
	0.378242	
	0.381202	
	0.386629	
	0.514744	0.130836
	0.509646	
	0.487937	
	0.394852	
	0.355546	
	0.322490	
	0.295025	
	0.277756	
	0.251936	
	0.240917	
	0.241575	
	0.235654	
	0.229405	
	0.249633	
	0.259501	
	0.269204	
	0.278578	
	0.280716	
	0.292558	
	0.334002	
	0.340580	
	0.377748	
	0.386794	
	0.431527	
	0.444026	
	0.498298	
	0.550597	
	0.570167	
	0.581022	
	0.590889	
	0.601579	
	0.600264	
	0.607171	
	0.605033	
	0.609145	
	0.607829	
	0.606349	
	0.606842	
	0.604704	
	0.592698	
	0.591876	
	0.573292	
	0.548130	
	0.528394	
	0.509810	
	0.478069	
	0.351106	
	0.307688	
	0.289926	
	0.270355	
	0.270191	
	0.284992	
	0.288611	
	0.294860	
	0.298972	
	0.293380	
	0.277098	
	0.272658	
	0.271013	
	0.266079	
	0.259666	
	0.270191	
	0.279401	
	0.292558	
	0.299301	
	0.332851	
	0.397977	
	0.514251	
	0.547143	
	0.563096	
	0.585627	
	0.597468	
	0.613585	
	0.614901	
	0.621479	
	0.620163	
	0.611447	
	0.600428	
	0.589738	
	0.576088	
	0.566220	
	0.533328	
	0.475438	
	0.403404	
	0.360151	
	0.360480	
	0.339922	
	0.319529	
	0.314760	
	0.310648	
	0.309333	
	0.313609	
	0.299794	
	0.302754	
	0.303412	
	0.334495	
	0.404062	
	0.446986	
	0.423797	
	0.384491	
	0.350612	0.098579
	0.369032	
	0.419028	
	0.540893	
	0.589574	
	0.623782	
	0.660292	
	0.680356	
	0.673120	
	0.664403	
	0.664897	
	0.679040	
	0.691210	
	0.683481	
	0.677725	
	0.653713	
	0.637267	
	0.624439	
	0.612927	
	0.584640	
	0.533822	
	0.315582	
	0.265751	
	0.231378	
	0.203255	
	0.193388	
	0.182205	
	0.183027	
	0.195690	
	0.215097	
	0.217399	
	0.229734	
	0.226773	
	0.229405	
	0.237299	
	0.250620	
	0.254732	
	0.261475	
	0.277756	
	0.289268	
	0.290584	
	0.301767	
	0.294367	
	0.313444	
	0.357520	
	0.380873	
	0.502738	
	0.531684	
	0.551090	
	0.544018	
	0.535960	
	0.556353	
	0.595330	
	0.623124	
	0.647299	
	0.657496	
	0.658812	
	0.652891	
	0.656674	
	0.658483	
	0.655687	
	0.642695	
	0.631347	
	0.620492	
	0.598619	
	0.587765	
	0.556517	
	0.458334	
	0.334660	
	0.320352	
	0.285650	
	0.226938	
	0.188618	
	0.185329	
	0.180889	
	0.178422	
	0.177435	
	0.184343	
	0.219208	
	0.282854	
	0.355546	
	0.538591	
	0.556353	
	0.551254	
	0.539742	
	0.545498	
	0.570496	
	0.561286	
	0.538591	
	0.478398	
	0.350777	
	0.324463	
	0.341402	
	0.390741	
	0.526421	
	0.529710	
	0.537111	
	0.525434	
	0.527243	
	0.543525	
	0.555366	0.118908
	0.547143	
	0.543360	
	0.540893	
	0.574772	
	0.589245	
	0.553886	
	0.527736	
	0.532506	
	0.537111	
	0.543854	
	0.547472	
	0.516553	
	0.493858	
	0.342883	
	0.283677	
	0.259994	
	0.250620	
	0.243055	
	0.237957	
	0.228089	
	0.247495	
	0.265093	
	0.248153	
	0.239108	
	0.256705	
	0.280388	
	0.302919	
	0.407187	
	0.514909	
	0.570496	
	0.589574	
	0.602895	
	0.596481	
	0.607007	
	0.604540	
	0.601250	
	0.603553	
	0.608816	
	0.595001	
	0.589409	
	0.575266	
	0.568852	
	0.550268	
	0.535631	
	0.512606	
	0.363605	
	0.303741	
	0.271013	
	0.257692	
	0.259994	
	0.263448	
	0.246344	
	0.252429	
	0.253252	
	0.278085	
	0.328246	
	0.498627	
	0.575101	
	0.607993	
	0.622137	
	0.630689	
	0.626248	
	0.622959	
	0.627400	
	0.625426	
	0.623288	
	0.614736	
	0.581844	
	0.505205	
	0.326272	
	0.278250	
	0.291735	
	0.350448	
	0.505041	
	0.534150	
	0.544840	
	0.524283	
	0.527572	
	0.538426	
	0.561286	
	0.528065	
	0.555366	
	0.555037	
	0.556517	
	0.554544	
	0.522803	
	0.485635	
	0.342225	
	0.330055	
	0.286473	
	0.265915	
	0.251771	
	0.243055	
	0.230556	
	0.242891	
	0.252100	
	0.264928	
	0.288940	
	0.309990	
	0.304892	0.133793
	0.310813	
	0.304234	
	0.317391	
	0.429389	
	0.517047	
	0.591218	
	0.607007	
	0.624604	
	0.626413	
	0.628222	
	0.626248	
	0.613092	
	0.610625	
	0.618683	
	0.626084	
	0.625920	
	0.609638	
	0.600099	
	0.607829	
	0.633320	
	0.622795	
	0.604211	
	0.581351	
	0.575923	
	0.567865	
	0.509646	
	0.347652	
	0.323970	
	0.338278	
	0.360315	
	0.471984	
	0.533164	
	0.519678	
	0.369196	
	0.334824	
	0.318542	
	0.352750	
	0.416232	
	0.415574	
	0.308017	
	0.278085	
	0.258185	
	0.251936	
	0.232036	
	0.219702	
	0.220688	
	0.234832	
	0.257034	
	0.277098	
	0.315582	
	0.394688	
	0.527408	
	0.543854	
	0.563424	
	0.583818	
	0.606513	
	0.608487	
	0.602237	
	0.591054	
	0.575595	
	0.565891	
	0.581186	
	0.574114	
	0.557175	
	0.528723	
	0.517704	
	0.539742	
	0.472313	
	0.389918	
	0.498134	
	0.559971	
	0.331206	
	0.273645	
	0.252923	
	0.234339	
	0.219208	
	0.222168	
	0.247660	
	0.311800	
	0.378900	
	0.548952	
	0.584969	
	0.592698	
	0.563424	
	0.557833	
	0.539249	
	0.345185	
	0.274960	
	0.269369	
	0.283019	
	0.260488	
	0.256212	
	0.254074	
	0.272165	
	0.301439	
	0.421495	
	0.544676	
	0.556846	
	0.557339	
	0.563424	0.112162
	0.548787	
	0.533657	
	0.501094	
	0.463103	
	0.454058	
	0.383176	
	0.359987	
	0.318542	
	0.294367	
	0.279401	
	0.273151	
	0.257528	
	0.258514	
	0.260652	
	0.268546	
	0.278085	
	0.293051	
	0.316404	
	0.336633	
	0.304563	
	0.307853	
	0.321667	
	0.367716	
	0.405378	
	0.537769	
	0.578884	
	0.584475	
	0.585298	
	0.588258	
	0.606349	
	0.621808	
	0.632991	
	0.632827	
	0.631182	
	0.628715	
	0.636609	
	0.640885	
	0.632005	
	0.620657	
	0.595001	
	0.572963	
	0.550925	
	0.505534	
	0.413765	
	0.397648	
	0.398306	
	0.515402	
	0.545992	
	0.575430	
	0.588587	
	0.600099	
	0.569838	
	0.536946	
	0.470998	
	0.295682	
	0.256705	
	0.261310	
	0.270191	
	0.246509	
	0.232365	
	0.243877	
	0.242726	
	0.244700	
	0.255061	
	0.278743	
	0.340416	
	0.518856	
	0.546321	
	0.557668	
	0.581844	
	0.594343	
	0.600922	
	0.611776	
	0.589903	
	0.569674	
	0.579871	
	0.582666	
	0.557668	
	0.551254	
	0.551912	
	0.545169	
	0.513428	
	0.394030	
	0.347981	
	0.329068	
	0.313280	
	0.317720	
	0.298314	
	0.292558	
	0.273645	
	0.258350	
	0.248153	
	0.247824	
	0.246838	
	0.249962	
	0.243877	
	0.245522	
	0.243219	
	0.255883	
	0.267560	0.081668
	0.276112	
	0.286144	
	0.304563	
	0.322983	
	0.343376	
	0.468695	
	0.544840	
	0.575595	
	0.594836	
	0.605362	
	0.609145	
	0.615065	
	0.610625	
	0.609967	
	0.613585	
	0.618025	
	0.617697	
	0.614078	
	0.611940	
	0.603388	
	0.568358	
	0.539907	
	0.503396	
	0.491884	
	0.493035	
	0.394194	
	0.343705	
	0.300452	
	0.283348	
	0.268217	
	0.256705	
	0.259337	
	0.283841	
	0.268546	
	0.255718	
	0.235490	
	0.226938	
	0.234503	
	0.277098	
	0.292558	
	0.299629	
	0.320023	
	0.347981	
	0.474780	
	0.569016	
	0.576581	
	0.567043	
	0.576088	
	0.581515	
	0.590396	
	0.601744	
	0.623946	
	0.636116	
	0.646313	
	0.644833	
	0.641708	
	0.632498	
	0.624604	
	0.611283	
	0.609473	
	0.599770	
	0.575595	
	0.558491	
	0.537275	
	0.544840	
	0.538098	
	0.549116	
	0.543525	
	0.514744	
	0.433336	
	0.357355	
	0.305057	
	0.293709	
	0.279401	
	0.271178	
	0.267066	
	0.263119	
	0.263119	
	0.270520	
	0.269533	
	0.274796	
	0.278907	
	0.294696	
	0.317227	
	0.330548	
	0.321996	
	0.314266	
	0.350119	
	0.383176	
	0.469024	
	0.396826	
	0.519678	
	0.562931	
	0.583489	
	0.594014	
	0.601744	
	0.611118	
	0.611611	
	0.610789	
	0.615887	0.061254
	0.599441	
	0.580364	
	0.555037	
	0.541222	
	0.540893	
	0.496160	
	0.488759	
	0.457676	
	0.477412	
	0.375775	
	0.354395	
	0.318214	
	0.324792	
	0.312293	
	0.292722	
	0.286473	
	0.290091	
	0.288611	
	0.295189	
	0.292887	
	0.294531	
	0.309168	
	0.337784	
	0.375281	
	0.371828	
	0.421659	
	0.408338	
	0.509975	
	0.523789	
	0.509810	
	0.490404	
	0.539413	
	0.558984	
	0.569345	
	0.576746	
	0.576910	
	0.579377	
	0.595494	
	0.614243	
	0.633978	
	0.628222	
	0.605855	
	0.601415	
	0.591054	
	0.573785	
	0.579871	
	0.580199	
	0.558491	
	0.542538	
	0.435145	
	0.291735	
	0.258021	
	0.251114	
	0.272658	
	0.295518	
	0.290420	
	0.285486	
	0.272822	
	0.282690	
	0.281868	
	0.282032	
	0.256212	
	0.235490	
	0.236477	
	0.249469	
	0.299794	
	0.403733	
	0.483825	
	0.516224	
	0.580693	
	0.621808	
	0.618519	
	0.597632	
	0.597139	
	0.602402	
	0.624604	
	0.631018	
	0.632169	
	0.621972	
	0.615394	
	0.596646	
	0.575266	
	0.566549	
	0.535960	
	0.511948	
	0.355711	
	0.276769	
	0.250620	
	0.249962	
	0.232036	
	0.235654	
	0.251607	
	0.267560	
	0.274467	
	0.255061	
	0.227596	
	0.217728	
	0.216577	
	0.223155	
	0.238615	0.073623
	0.253252	
	0.245029	
	0.255390	
	0.295025	
	0.345678	
	0.486621	
	0.541551	
	0.527408	
	0.501916	
	0.530203	
	0.515731	
	0.535960	
	0.565234	
	0.583324	
	0.581515	
	0.571154	
	0.554379	
	0.552735	
	0.548787	
	0.561451	
	0.565234	
	0.564905	
	0.546156	
	0.500765	
	0.434158	
	0.338771	
	0.307853	
	0.281045	
	0.275454	
	0.272165	
	0.275289	
	0.274796	
	0.278085	
	0.282690	
	0.300616	
	0.313773	
	0.319694	
	0.310648	
	0.311142	
	0.305386	
	0.308510	
	0.299301	
	0.303741	
	0.308839	
	0.336304	
	0.412121	
	0.506686	
	0.555530	
	0.568358	
	0.585462	
	0.595330	
	0.607664	
	0.613914	
	0.617039	
	0.617697	
	0.617039	
	0.614736	
	0.609309	
	0.598126	
	0.588422	
	0.575923	
	0.559477	
	0.519513	
	0.461623	
	0.388109	
	0.313609	
	0.298807	
	0.281703	
	0.279894	
	0.284828	
	0.298972	
	0.312951	
	0.363934	
	0.505205	
	0.488924	
	0.367223	
	0.337620	
	0.332193	
	0.324134	
	0.309990	
	0.340251	
	0.375939	
	0.415081	
	0.441888	
	0.418863	
	0.501094	
	0.541716	
	0.590889	
	0.614736	
	0.637925	
	0.650095	
	0.660292	
	0.675093	
	0.692526	
	0.697296	
	0.689401	
	0.672791	
	0.666048	
	0.658154	
	0.657332	0.074677
	0.647464	
	0.639241	
	0.618848	
	0.587765	
	0.585462	
	0.587436	
	0.500272	
	0.284992	
	0.247166	
	0.219702	
	0.187138	
	0.171350	
	0.171515	
	0.183685	
	0.187632	
	0.198815	
	0.215754	
	0.225458	
	0.223813	
	0.229898	
	0.254567	
	0.294038	
	0.291900	
	0.267066	
	0.258350	
	0.301110	
	0.429882	
	0.566714	
	0.580364	
	0.590889	
	0.605033	
	0.606184	
	0.610131	
	0.597139	
	0.595494	
	0.598948	
	0.596481	
	0.612763	
	0.613914	
	0.602237	
	0.587929	
	0.585462	
	0.571483	
	0.575595	
	0.558491	
	0.534315	
	0.380380	
	0.308510	
	0.295025	
	0.285979	
	0.281539	
	0.267231	
	0.264599	
	0.268053	
	0.275783	
	0.305221	
	0.331370	
	0.311142	
	0.300945	
	0.284170	
	0.262955	
	0.270684	
	0.283183	
	0.343869	
	0.521323	
	0.549939	
	0.546156	
	0.541387	
	0.517211	
	0.539907	
	0.556188	
	0.573457	
	0.583982	
	0.590725	
	0.607664	
	0.586285	
	0.532177	
	0.480701	
	0.452742	
	0.442875	
	0.397484	
	0.359164	
	0.333179	
	0.315747	
	0.343869	
	0.329232	
	0.296011	
	0.271178	
	0.270849	
	0.265915	
	0.252758	
	0.226773	
	0.217235	
	0.251771	
	0.289762	
	0.317062	
	0.350448	
	0.372157	
	0.402746	
	0.383669	0.072693
	0.365578	
	0.364756	
	0.421001	
	0.536946	
	0.556682	
	0.579871	
	0.583489	
	0.583324	
	0.584640	
	0.592205	
	0.583324	
	0.573457	
	0.549445	
	0.541551	
	0.517540	
	0.478892	
	0.514251	
	0.545827	
	0.550103	
	0.549281	
	0.551090	
	0.530697	
	0.508988	
	0.436790	
	0.361467	
	0.321503	
	0.289104	
	0.268875	
	0.260488	
	0.253252	
	0.255554	
	0.256212	
	0.257034	
	0.270191	
	0.293380	
	0.301274	
	0.311142	
	0.331041	
	0.501916	
	0.546814	
	0.558820	
	0.548130	
	0.535960	
	0.521816	
	0.477083	
	0.468366	
	0.535466	
	0.562767	
	0.582337	
	0.599277	
	0.595330	
	0.579377	
	0.554708	
	0.540236	
	0.549774	
	0.552735	
	0.546156	
	0.574443	
	0.596481	
	0.609638	
	0.618848	
	0.621972	
	0.640721	
	0.644175	
	0.630524	
	0.631182	
	0.620986	
	0.602237	
	0.587600	
	0.589245	
	0.607171	
	0.602402	
	0.554708	
	0.447480	
	0.332522	
	0.297327	
	0.290584	
	0.272658	
	0.283019	
	0.287459	
	0.288446	
	0.305057	
	0.327094	
	0.328081	
	0.420673	
	0.508330	
	0.528723	
	0.556353	
	0.547801	
	0.593192	
	0.628222	
	0.638747	
	0.637761	
	0.625426	
	0.616874	
	0.625262	
	0.620986	
	0.607007	
	0.583818	
	0.535466	0.135830
	0.436790	
	0.317062	
	0.263119	
	0.225622	
	0.207203	
	0.210163	
	0.215754	
	0.211807	
	0.214603	
	0.225951	
	0.230885	
	0.236312	
	0.250291	
	0.261639	
	0.276934	
	0.303083	
	0.473793	
	0.569345	
	0.530697	
	0.526421	
	0.561122	
	0.551090	
	0.521487	
	0.372486	
	0.367716	
	0.514086	
	0.555037	
	0.597468	
	0.615887	
	0.631182	
	0.643023	
	0.647793	
	0.643846	
	0.627729	
	0.616874	
	0.603060	
	0.557833	
	0.410476	
	0.309826	
	0.297820	
	0.297820	
	0.281045	
	0.268053	
	0.280716	
	0.296176	
	0.299465	
	0.293380	
	0.285979	
	0.254238	
	0.229405	
	0.221675	
	0.228911	
	0.227596	
	0.219208	
	0.217564	
	0.236641	
	0.268875	
	0.311306	
	0.333837	
	0.308181	
	0.284664	
	0.286966	
	0.287130	
	0.295518	
	0.312786	
	0.341896	
	0.318542	
	0.343540	
	0.510304	
	0.567865	
	0.581351	
	0.608980	
	0.633814	
	0.639076	
	0.634143	
	0.619670	
	0.598126	
	0.575759	
	0.553557	
	0.499778	
	0.430540	
	0.448137	
	0.479714	
	0.502738	
	0.499614	
	0.510468	
	0.517047	
	0.511290	
	0.427744	
	0.310977	
	0.291078	
	0.260323	
	0.244042	
	0.246180	
	0.248318	
	0.255883	
	0.263119	
	0.264270	
	0.274631	
	0.276276	0.098810
	0.284006	
	0.308017	
	0.310484	
	0.332357	
	0.331041	
	0.371170	
	0.525105	
	0.565069	
	0.585462	
	0.606349	
	0.611940	
	0.611611	
	0.621479	
	0.620657	
	0.620821	
	0.622137	
	0.622301	
	0.624110	
	0.609473	
	0.590889	
	0.570003	
	0.519842	
	0.514744	
	0.536782	
	0.533657	
	0.495996	
	0.450111	
	0.388603	
	0.335482	
	0.319036	
	0.320352	
	0.344034	
	0.353244	
	0.391892	
	0.385149	
	0.417383	
	0.532012	
	0.562109	
	0.580364	
	0.595494	
	0.610625	
	0.619999	
	0.620821	
	0.616545	
	0.613092	
	0.596646	
	0.591547	
	0.584311	
	0.577239	
	0.572470	
	0.571319	
	0.574772	
	0.588587	
	0.609473	
	0.623617	
	0.608980	
	0.572305	
	0.460965	
	0.305879	
	0.272165	
	0.263941	
	0.255225	
	0.244371	
	0.228582	
	0.216741	
	0.214603	
	0.222333	
	0.234339	
	0.245686	
	0.249304	
	0.259994	
	0.277921	
	0.279236	
	0.277592	
	0.272822	
	0.273645	
	0.273480	
	0.285486	
	0.297820	
	0.294202	
	0.296176	
	0.321832	
	0.315582	
	0.308181	
	0.314266	
	0.336962	
	0.393701	
	0.465570	
	0.472971	
	0.498298	
	0.578884	
	0.618848	
	0.624604	
	0.620328	
	0.613256	
	0.603060	
	0.606020	
	0.610131	
	0.621808	
	0.637267	0.121258
	0.653384	
	0.652727	
	0.651575	
	0.643023	
	0.644504	
	0.648944	
	0.636281	
	0.575759	
	0.320516	
	0.256705	
	0.218221	
	0.200789	
	0.194704	
	0.210821	
	0.246180	
	0.325121	
	0.376762	
	0.454387	
	0.499285	
	0.498627	
	0.317720	
	0.278250	
	0.257199	
	0.255061	
	0.261639	
	0.261475	
	0.270191	
	0.297163	
	0.337291	
	0.438599	
	0.465077	
	0.395510	
	0.514909	
	0.532341	
	0.557997	
	0.562931	
	0.564247	
	0.567372	
	0.571483	
	0.577568	
	0.593356	
	0.601908	
	0.587929	
	0.552735	
	0.462281	
	0.343376	
	0.313609	
	0.293051	
	0.289433	
	0.281210	
	0.279072	
	0.281374	
	0.260323	
	0.252265	
	0.253580	
	0.263284	
	0.271671	
	0.286802	
	0.299629	
	0.311964	
	0.316898	
	0.319529	
	0.315911	
	0.319694	
	0.318707	
	0.337455	
	0.441066	
	0.540400	
	0.559148	
	0.576417	
	0.586120	
	0.594672	
	0.605691	
	0.610789	
	0.613256	
	0.611447	
	0.609802	
	0.608651	
	0.594179	
	0.582666	
	0.571319	
	0.566549	
	0.562438	
	0.541387	
	0.512771	
	0.423139	
	0.329397	
	0.286802	
	0.272987	
	0.269533	
	0.269040	
	0.256047	
	0.243055	
	0.242233	
	0.247989	
	0.257856	
	0.266737	
	0.279730	
	0.296176	
	0.315582	0.076304
	0.316898	
	0.372650	
	0.441230	
	0.507343	
	0.538426	
	0.543854	
	0.564740	
	0.585133	
	0.594672	
	0.605197	
	0.611118	
	0.612927	
	0.618519	
	0.615723	
	0.619341	
	0.618190	
	0.625591	
	0.630360	
	0.636445	
	0.636116	
	0.629538	
	0.615887	
	0.609145	
	0.613749	
	0.607664	
	0.586942	
	0.538591	
	0.345843	
	0.283019	
	0.265751	
	0.278414	
	0.303741	
	0.295847	
	0.287295	
	0.284335	
	0.296669	
	0.299136	
	0.319200	
	0.347981	
	0.327588	
	0.330219	
	0.361138	
	0.313444	
	0.292229	
	0.296011	
	0.324627	
	0.545005	
	0.555859	
	0.500929	
	0.519349	
	0.509975	
	0.515895	
	0.568358	
	0.586449	
	0.585298	
	0.571976	
	0.578719	
	0.574937	
	0.545992	
	0.469188	
	0.388932	
	0.354230	
	0.507343	
	0.542867	
	0.537111	
	0.527572	
	0.521323	
	0.448466	
	0.332522	
	0.289104	
	0.258843	
	0.236641	
	0.218386	
	0.220853	
	0.236970	
	0.263613	
	0.286144	
	0.306701	
	0.341896	
	0.441395	
	0.532999	
	0.567372	
	0.555695	
	0.566714	
	0.595165	
	0.608651	
	0.620821	
	0.632991	
	0.649273	
	0.651082	
	0.649766	
	0.648780	
	0.650424	
	0.641708	
	0.636445	
	0.641214	
	0.650260	
	0.653384	
	0.648122	
	0.613914	0.084760
	0.553063	
	0.277592	
	0.224142	
	0.207696	
	0.214439	
	0.205229	
	0.199637	
	0.206709	
	0.240259	
	0.281045	
	0.325121	
	0.391892	
	0.382024	
	0.390741	
	0.306866	
	0.266737	
	0.228254	
	0.205065	
	0.199144	
	0.207203	
	0.212630	
	0.232201	
	0.269862	
	0.321503	
	0.412943	
	0.498791	
	0.507014	
	0.559642	
	0.599606	
	0.591054	
	0.575595	
	0.537933	
	0.474287	
	0.516389	
	0.564576	
	0.562931	
	0.555201	
	0.546321	
	0.517869	
	0.457676	
	0.438763	
	0.397648	
	0.412614	
	0.435310	
	0.467215	
	0.429389	
	0.328575	
	0.306372	
	0.288775	
	0.284828	
	0.281045	
	0.276276	
	0.260323	
	0.257363	
	0.253087	
	0.255718	
	0.260323	
	0.267724	
	0.275947	
	0.294531	
	0.297163	
	0.315418	
	0.340745	
	0.384327	
	0.497640	
	0.543360	
	0.566714	
	0.576088	
	0.578555	
	0.585298	
	0.584640	
	0.589245	
	0.596810	
	0.591054	
	0.599770	
	0.604046	
	0.607664	
	0.604046	
	0.597632	
	0.592534	
	0.593192	
	0.580035	
	0.560793	
	0.521323	
	0.391727	
	0.332686	
	0.308181	
	0.299794	
	0.292887	
	0.307688	
	0.301274	
	0.308346	
	0.285815	
	0.275289	
	0.264599	
	0.266902	
	0.259172	
	0.252758	
	0.262790	
	0.268217	0.110743
	0.272000	
	0.307688	
	0.347816	
	0.447315	
	0.523132	
	0.534479	
	0.546321	
	0.564247	
	0.579871	
	0.591383	
	0.600264	
	0.604046	
	0.609638	
	0.607829	
	0.615723	
	0.621315	
	0.631347	
	0.639076	
	0.644833	
	0.644010	
	0.637925	
	0.621315	
	0.608322	
	0.592863	
	0.573292	
	0.541880	
	0.429225	
	0.428731	
	0.560629	
	0.609145	
	0.629702	
	0.639405	
	0.628715	
	0.609473	
	0.550432	
	0.321009	
	0.277427	
	0.283512	
	0.303412	
	0.310977	
	0.320187	
	0.385807	
	0.512771	
	0.564576	
	0.574937	
	0.560793	
	0.527243	
	0.447480	
	0.530697	
	0.565727	
	0.573621	
	0.587107	
	0.594179	
	0.559642	
	0.555037	
	0.577404	
	0.577568	
	0.556846	
	0.375775	
	0.281210	
	0.253252	
	0.244206	
	0.248153	
	0.251278	
	0.238779	
	0.234996	
	0.232858	
	0.254238	
	0.286802	
	0.355711	
	0.444848	
	0.523954	
	0.564740	
	0.598455	
	0.583160	
	0.520500	
	0.311471	
	0.262626	
	0.238121	
	0.206709	
	0.188783	
	0.191743	
	0.205887	
	0.212959	
	0.233187	
	0.261639	
	0.298314	
	0.367223	
	0.535466	
	0.557175	
	0.554215	
	0.540564	
	0.551583	
	0.553886	
	0.559477	
	0.565727	
	0.556846	
	0.535137	
	0.546978	
	0.555201	0.084717
	0.560300	
	0.540400	
	0.519678	
	0.484977	
	0.466557	
	0.476918	
	0.403075	
	0.359658	
	0.317556	
	0.295518	
	0.284828	
	0.276769	
	0.265586	
	0.269533	
	0.275947	
	0.298314	
	0.301932	
	0.304728	
	0.305879	
	0.309004	
	0.312457	
	0.357684	
	0.427415	
	0.514415	
	0.552241	
	0.573950	
	0.592863	
	0.602895	
	0.603553	
	0.601908	
	0.593850	
	0.577404	
	0.580035	
	0.573292	
	0.571976	
	0.557997	
	0.557668	
	0.558162	
	0.562438	
	0.557504	
	0.577404	
	0.569838	
	0.563753	
	0.557175	
	0.556846	
	0.517047	
	0.304892	
	0.264928	
	0.247331	
	0.237463	
	0.232529	
	0.234010	
	0.236148	
	0.253252	
	0.266902	
	0.291900	
	0.310319	
	0.324299	
	0.323476	
	0.323970	
	0.322818	
	0.333015	
	0.344034	
	0.377419	
	0.431856	
	0.497476	
	0.541716	
	0.557997	
	0.571976	
	0.582173	
	0.591383	
	0.598290	
	0.608487	
	0.605691	
	0.611447	
	0.609967	
	0.611940	
	0.610460	
	0.611611	
	0.620328	
	0.641872	
	0.649766	
	0.638419	
	0.628715	
	0.626084	
	0.613749	
	0.600099	
	0.618683	
	0.630524	
	0.624110	
	0.619012	
	0.628880	
	0.607500	
	0.602237	
	0.557668	
	0.533164	
	0.490075	
	0.379722	
	0.261310	
	0.204736	0.154800
	0.177106	
	0.172666	
	0.173324	
	0.174804	
	0.175955	
	0.177271	
	0.245029	
	0.279565	
	0.347981	
	0.533328	
	0.582831	
	0.594179	
	0.601250	
	0.592370	
	0.600099	
	0.597632	
	0.598126	
	0.580364	
	0.547636	
	0.514086	
	0.533657	
	0.543196	
	0.536946	
	0.504548	
	0.357520	
	0.320845	
	0.285979	
	0.266573	
	0.257692	
	0.267231	
	0.291900	
	0.426593	
	0.541222	
	0.577897	
	0.603717	
	0.605855	
	0.611776	
	0.628880	
	0.639570	
	0.644010	
	0.647464	
	0.643517	
	0.630031	
	0.620986	
	0.609638	
	0.553063	
	0.517375	
	0.330877	
	0.260488	
	0.242891	
	0.240753	
	0.237134	
	0.247002	
	0.257856	
	0.287459	
	0.325943	
	0.425442	
	0.562438	
	0.604869	
	0.611776	
	0.605033	
	0.593027	
	0.578719	
	0.550925	
	0.551583	
	0.567536	
	0.545169	
	0.491062	
	0.318871	
	0.295353	
	0.256541	
	0.227102	
	0.203091	
	0.200789	
	0.196019	
	0.195855	
	0.199802	
	0.203091	
	0.204900	
	0.211643	
	0.229405	
	0.255883	
	0.262955	
	0.279565	
	0.306208	
	0.344034	
	0.509646	
	0.572799	
	0.608322	
	0.614736	
	0.613092	
	0.612434	
	0.619506	
	0.600428	
	0.571319	
	0.570661	
	0.567372	
	0.567700	
	0.567372	
	0.571319	0.085897
	0.562602	
	0.548294	
	0.546321	
	0.535466	
	0.517047	
	0.483168	
	0.358342	
	0.324134	
	0.293215	
	0.287130	
	0.289268	
	0.297985	
	0.283019	
	0.285321	
	0.272329	
	0.262461	
	0.252429	
	0.246509	
	0.246180	
	0.248482	
	0.254732	
	0.284828	
	0.330055	
	0.462774	
	0.525434	
	0.535137	
	0.551090	
	0.570003	
	0.586120	
	0.593192	
	0.586120	
	0.579213	
	0.596152	
	0.594179	
	0.601250	
	0.600757	
	0.600099	
	0.601908	
	0.596974	
	0.584311	
	0.584147	
	0.562109	
	0.534479	
	0.501587	
	0.464090	
	0.408831	
	0.342225	
	0.349954	
	0.324956	
	0.322654	
	0.314266	
	0.316240	
	0.305879	
	0.325779	
	0.309168	
	0.315089	
	0.326437	
	0.350448	
	0.372814	
	0.445835	
	0.528888	
	0.573128	
	0.562438	
	0.550268	
	0.541387	
	0.550761	
	0.566220	
	0.574772	
	0.598948	
	0.622137	
	0.640721	
	0.646806	
	0.649109	
	0.651740	
	0.655687	
	0.653220	
	0.644668	
	0.628222	
	0.612105	
	0.592370	
	0.573621	
	0.522967	
	0.452249	
	0.374952	
	0.294860	
	0.258185	
	0.233516	
	0.253745	
	0.244700	
	0.237792	
	0.233681	
	0.229734	
	0.219537	
	0.211643	
	0.205393	
	0.219373	
	0.254896	
	0.307524	
	0.527901	
	0.590396	0.111543
	0.619506	
	0.654700	
	0.668515	
	0.684796	
	0.696638	
	0.692033	
	0.682987	
	0.661608	
	0.623782	
	0.585462	
	0.546814	
	0.503067	
	0.544676	
	0.541387	
	0.504054	
	0.396826	
	0.320845	
	0.328739	
	0.313444	
	0.274631	
	0.273151	
	0.276605	
	0.270849	
	0.258021	
	0.241739	
	0.230227	
	0.225622	
	0.224800	
	0.218386	
	0.217564	
	0.231214	
	0.240095	
	0.228747	
	0.226444	
	0.230885	
	0.230885	
	0.232365	
	0.219702	
	0.212959	
	0.222168	
	0.236805	
	0.278743	
	0.315089	
	0.472971	
	0.553063	
	0.576581	
	0.621644	
	0.648122	
	0.650095	
	0.652069	
	0.658483	
	0.659141	
	0.656180	
	0.642695	
	0.641543	
	0.615559	
	0.582173	
	0.547965	
	0.515895	
	0.408338	
	0.282361	
	0.231707	
	0.221840	
	0.225129	
	0.228911	
	0.250620	
	0.263941	
	0.283019	
	0.291406	
	0.300287	
	0.306701	
	0.319036	
	0.290584	
	0.291242	
	0.287788	
	0.274138	
	0.265093	
	0.264106	
	0.265422	
	0.280716	
	0.291406	
	0.322325	
	0.367058	
	0.450933	
	0.467708	
	0.503067	
	0.543525	
	0.566220	
	0.582009	
	0.583982	
	0.593850	
	0.604375	
	0.617203	
	0.617368	
	0.611118	
	0.596317	
	0.569674	
	0.557833	
	0.548787	
	0.551254	0.050030
	0.563096	
	0.563753	
	0.553063	
	0.527736	
	0.482181	
	0.454551	
	0.367387	
	0.322325	
	0.305221	
	0.309004	
	0.302261	
	0.293051	
	0.288117	
	0.274796	
	0.266079	
	0.264106	
	0.260488	
	0.257034	
	0.262461	
	0.275783	
	0.280223	
	0.284992	
	0.298478	
	0.337620	
	0.386465	
	0.454058	
	0.524612	
	0.542209	
	0.559642	
	0.558820	
	0.574608	
	0.590889	
	0.604046	
	0.604540	
	0.604375	
	0.598619	
	0.594179	
	0.594179	
	0.595659	
	0.582502	
	0.576088	
	0.551583	
	0.540893	
	0.525434	
	0.496818	
	0.467379	
	0.360644	
	0.347159	
	0.324956	
	0.310977	
	0.305550	
	0.297985	
	0.285321	
	0.277592	
	0.273645	
	0.280716	
	0.284992	
	0.289926	
	0.287953	
	0.296176	
	0.294531	
	0.308181	
	0.327917	
	0.379393	
	0.421001	
	0.498134	
	0.538920	
	0.562931	
	0.586120	
	0.596810	
	0.605362	
	0.607829	
	0.613914	
	0.622301	
	0.631511	
	0.627071	
	0.629209	
	0.626742	
	0.619506	
	0.603224	
	0.597139	
	0.572634	
	0.567207	
	0.585298	
	0.590560	
	0.589738	
	0.593685	
	0.606184	
	0.627400	
	0.639734	
	0.638912	
	0.626413	
	0.600922	
	0.580857	
	0.327752	
	0.243548	
	0.209998	
	0.188125	
	0.179573	
	0.180724	0.105100
	0.180395	
	0.201282	
	0.240259	
	0.261639	
	0.271013	
	0.256541	
	0.270849	
	0.309990	
	0.447973	
	0.542538	
	0.580199	
	0.617203	
	0.641050	
	0.653220	
	0.650589	
	0.642201	
	0.646148	
	0.637432	
	0.631511	
	0.617532	
	0.611776	
	0.600593	
	0.584640	
	0.479878	
	0.279730	
	0.262461	
	0.251114	
	0.241575	
	0.235490	
	0.246673	
	0.266737	
	0.265093	
	0.279072	
	0.332357	
	0.342554	
	0.296340	
	0.277592	
	0.266408	
	0.252429	
	0.240753	
	0.253416	
	0.283841	
	0.310155	
	0.300123	
	0.273151	
	0.263941	
	0.277098	
	0.348474	
	0.495502	
	0.535795	
	0.563260	
	0.572305	
	0.590889	
	0.593685	
	0.591712	
	0.574114	
	0.568358	
	0.573950	
	0.582502	
	0.566220	
	0.549610	
	0.485306	
	0.392056	
	0.347488	
	0.308510	
	0.298972	
	0.293544	
	0.287788	
	0.285321	
	0.296669	
	0.299629	
	0.292393	
	0.285321	
	0.292064	
	0.291735	
	0.293544	
	0.291406	
	0.289268	
	0.287788	
	0.301767	
	0.308510	
	0.321174	
	0.337291	
	0.389918	
	0.500272	
	0.520994	
	0.542867	
	0.560464	
	0.574114	
	0.570990	
	0.566385	
	0.570661	
	0.576088	
	0.587600	
	0.593356	
	0.597468	
	0.602566	
	0.601086	
	0.595165	
	0.587107	0.076701
	0.584147	
	0.565234	
	0.557504	
	0.537604	
	0.547143	
	0.548130	
	0.499449	
	0.334660	
	0.289433	
	0.272658	
	0.254403	
	0.248318	
	0.245193	
	0.243877	
	0.248482	
	0.261310	
	0.286802	
	0.313938	
	0.343376	
	0.372814	
	0.343705	
	0.332193	
	0.330055	
	0.347323	
	0.411134	
	0.518033	
	0.564082	
	0.582831	
	0.610954	
	0.616874	
	0.617697	
	0.629373	
	0.630031	
	0.634143	
	0.643188	
	0.645655	
	0.644504	
	0.638419	
	0.630853	
	0.611776	
	0.618354	
	0.618354	
	0.611776	
	0.584311	
	0.539249	
	0.464748	
	0.343869	
	0.299465	
	0.256047	
	0.245686	
	0.259830	
	0.261146	
	0.266244	
	0.279730	
	0.308346	
	0.350283	
	0.360315	
	0.338442	
	0.343212	
	0.424126	
	0.330877	
	0.311964	
	0.326108	
	0.319200	
	0.302096	
	0.334495	
	0.508166	
	0.557010	
	0.577568	
	0.594179	
	0.581022	
	0.560793	
	0.554050	
	0.520500	
	0.481359	
	0.501094	
	0.501094	
	0.444519	
	0.465570	
	0.415081	
	0.416068	
	0.406693	
	0.560135	
	0.603224	
	0.628386	
	0.639405	
	0.627893	
	0.620328	
	0.611611	
	0.595659	
	0.535466	
	0.292722	
	0.234503	
	0.207860	
	0.194868	
	0.218879	
	0.283512	
	0.448960	
	0.547636	
	0.551912	0.096293
	0.548459	
	0.528394	
	0.339264	
	0.276276	
	0.267066	
	0.273316	
	0.296011	
	0.311306	
	0.334824	
	0.344198	
	0.432020	
	0.463268	
	0.437448	
	0.392714	
	0.369525	
	0.395017	
	0.432349	
	0.484648	
	0.482674	
	0.492542	
	0.544347	
	0.552077	
	0.568687	
	0.583489	
	0.593027	
	0.585956	
	0.558326	
	0.511948	
	0.359493	
	0.319036	
	0.293051	
	0.284992	
	0.272658	
	0.258021	
	0.247660	
	0.241410	
	0.247495	
	0.252429	
	0.256870	
	0.275125	
	0.273645	
	0.287788	
	0.301932	
	0.331699	
	0.378900	
	0.412285	
	0.487608	
	0.521980	
	0.548952	
	0.556353	
	0.576088	
	0.593192	
	0.597632	
	0.589245	
	0.586942	
	0.575101	
	0.557833	
	0.573950	
	0.590889	
	0.592698	
	0.605362	
	0.630196	
	0.649766	
	0.644668	
	0.626084	
	0.613256	
	0.578061	
	0.427744	
	0.276112	
	0.239272	
	0.233352	
	0.246509	
	0.262461	
	0.256376	
	0.239437	
	0.231049	
	0.230063	
	0.239272	
	0.255390	
	0.264928	
	0.271671	
	0.292722	
	0.314102	
	0.379228	
	0.485141	
	0.508824	
	0.535137	
	0.555695	
	0.584311	
	0.596810	
	0.610625	
	0.603388	
	0.596152	
	0.604046	
	0.613421	
	0.615723	
	0.619834	
	0.619012	
	0.614901	
	0.608487	0.101385
	0.604869	
	0.600922	
	0.587436	
	0.544018	
	0.502410	
	0.383669	
	0.293709	
	0.247166	
	0.225293	
	0.224471	
	0.231214	
	0.258021	
	0.272658	
	0.280223	
	0.285157	
	0.322818	
	0.430705	
	0.405049	
	0.394688	
	0.421659	
	0.520829	
	0.575759	
	0.604704	
	0.620328	
	0.634307	
	0.633978	
	0.640885	
	0.639405	
	0.627564	
	0.600428	
	0.578226	
	0.569838	
	0.566220	
	0.570332	
	0.567372	
	0.555201	
	0.538426	
	0.550103	
	0.537604	
	0.522638	
	0.533493	
	0.579706	
	0.595165	
	0.597961	
	0.614078	
	0.618354	
	0.597303	
	0.570825	
	0.552570	
	0.553886	
	0.532177	
	0.515895	
	0.503890	
	0.533657	
	0.587765	
	0.607171	
	0.584311	
	0.461623	
	0.304892	
	0.312457	
	0.341896	
	0.272658	
	0.232694	
	0.204242	
	0.207531	
	0.223649	
	0.242397	
	0.263448	
	0.293215	
	0.329068	
	0.363276	
	0.368867	
	0.362453	
	0.554544	
	0.571154	
	0.527243	
	0.450769	
	0.326108	
	0.284499	
	0.266737	
	0.259830	
	0.265093	
	0.274138	
	0.288117	
	0.293873	
	0.293380	
	0.275289	
	0.266244	
	0.259008	
	0.260817	
	0.261310	
	0.270684	
	0.268875	
	0.268546	
	0.268546	
	0.269040	
	0.263941	
	0.247824	
	0.237463	
	0.243548	0.146380
	0.255225	
	0.273480	
	0.305879	
	0.371663	
	0.520336	
	0.574608	
	0.616545	
	0.623946	
	0.626577	
	0.621479	
	0.610789	
	0.595988	
	0.577568	
	0.569016	
	0.574772	
	0.581680	
	0.582009	
	0.582337	
	0.585133	
	0.583653	
	0.589245	
	0.587436	
	0.583982	
	0.561615	
	0.523954	
	0.495009	
	0.379228	
	0.333508	
	0.301767	
	0.283348	
	0.271013	
	0.267066	
	0.267395	
	0.265093	
	0.272000	
	0.265915	
	0.263941	
	0.270849	
	0.276605	
	0.282690	
	0.296834	
	0.329232	
	0.402746	
	0.416561	
	0.424784	
	0.475602	
	0.522638	
	0.536453	
	0.540400	
	0.545663	
	0.556353	
	0.564411	
	0.585462	
	0.607664	
	0.614243	
	0.622959	
	0.633814	
	0.642695	
	0.646971	
	0.636445	
	0.622301	
	0.584311	
	0.537769	
	0.474780	
	0.417877	
	0.380873	
	0.339100	
	0.306372	
	0.292558	
	0.291242	
	0.280388	
	0.286308	
	0.273480	
	0.248647	
	0.229569	
	0.231378	
	0.235161	
	0.237957	
	0.254567	
	0.309662	
	0.385478	
	0.509646	
	0.544511	
	0.571483	
	0.590725	
	0.608322	
	0.622795	
	0.623453	
	0.619177	
	0.621972	
	0.634800	
	0.646477	
	0.647957	
	0.639405	
	0.621479	
	0.598619	
	0.576746	
	0.582337	
	0.582337	
	0.589409	0.118285
	0.616381	
	0.634965	
	0.640392	
	0.645984	
	0.632498	
	0.595330	
	0.533986	
	0.415081	
	0.452907	
	0.395017	
	0.333673	
	0.283841	
	0.243219	
	0.224800	
	0.217235	
	0.213945	
	0.218057	
	0.229405	
	0.257034	
	0.271507	
	0.275618	
	0.280716	
	0.339264	
	0.459979	
	0.456196	
	0.360809	
	0.439092	
	0.536124	
	0.551254	
	0.536124	
	0.559148	
	0.587765	
	0.612105	
	0.621644	
	0.611447	
	0.584147	
	0.567043	
	0.586942	
	0.592205	
	0.552570	
	0.452413	
	0.437941	
	0.412614	
	0.325943	
	0.331699	
	0.377255	
	0.471820	
	0.512277	
	0.481687	
	0.288282	
	0.263777	
	0.247989	
	0.236641	
	0.226444	
	0.234667	
	0.254403	
	0.290091	
	0.320023	
	0.332028	
	0.375775	
	0.516718	
	0.555037	
	0.567043	
	0.554379	
	0.543031	
	0.515073	
	0.511290	
	0.517375	
	0.321009	
	0.275618	
	0.260817	
	0.255718	
	0.266902	
	0.304234	
	0.338771	
	0.512277	
	0.565398	
	0.586613	
	0.601908	
	0.602402	
	0.594836	
	0.591712	
	0.572141	
	0.545005	
	0.535137	
	0.513922	
	0.467873	
	0.383340	
	0.347323	
	0.328903	
	0.300123	
	0.280388	
	0.268382	
	0.264435	
	0.267889	
	0.269698	
	0.268382	
	0.262955	
	0.260981	
	0.262461	0.080667
	0.274467	
	0.282361	
	0.297163	
	0.305715	
	0.315253	
	0.324463	
	0.363769	
	0.508659	
	0.551419	
	0.565069	
	0.579871	
	0.588258	
	0.595330	
	0.606349	
	0.600757	
	0.602237	
	0.592370	
	0.588751	
	0.588587	
	0.583653	
	0.566714	
	0.546321	
	0.540564	
	0.489417	
	0.360315	
	0.346830	
	0.316240	
	0.299301	
	0.290420	
	0.284170	
	0.279401	
	0.280716	
	0.276605	
	0.278250	
	0.297491	
	0.310319	
	0.334495	
	0.349132	
	0.355382	
	0.348803	
	0.360315	
	0.382518	
	0.512113	
	0.561122	
	0.594014	
	0.602731	
	0.593356	
	0.604540	
	0.629373	
	0.643023	
	0.640063	
	0.629209	
	0.624933	
	0.624768	
	0.607500	
	0.589738	
	0.586778	
	0.595001	
	0.591876	
	0.570496	
	0.546814	
	0.561451	
	0.552406	
	0.590560	
	0.609473	
	0.608158	
	0.591547	
	0.530039	
	0.339264	
	0.304728	
	0.276112	
	0.247166	
	0.237628	
	0.225129	
	0.226773	
	0.218221	
	0.212136	
	0.205393	
	0.220030	
	0.232529	
	0.246344	
	0.248647	
	0.261146	
	0.334989	
	0.557997	
	0.597468	
	0.606184	
	0.602731	
	0.593027	
	0.586449	
	0.596152	
	0.600428	
	0.614243	
	0.630360	
	0.621972	
	0.595988	
	0.572141	
	0.590232	
	0.571319	
	0.564082	0.109717
	0.561780	
	0.526421	
	0.362947	
	0.277098	
	0.237957	
	0.232858	
	0.231378	
	0.246344	
	0.260652	
	0.262461	
	0.240424	
	0.227925	
	0.239437	
	0.256870	
	0.280388	
	0.343705	
	0.361138	
	0.328081	
	0.315582	
	0.297985	
	0.303083	
	0.301274	
	0.322490	
	0.421166	
	0.546814	
	0.583324	
	0.595001	
	0.613421	
	0.627071	
	0.630853	
	0.638747	
	0.648615	
	0.649437	
	0.642859	
	0.619341	
	0.604211	
	0.598290	
	0.599441	
	0.593027	
	0.592698	
	0.594343	
	0.599112	
	0.609802	
	0.615887	
	0.613256	
	0.609802	
	0.595494	
	0.559971	
	0.461294	
	0.292887	
	0.252429	
	0.232201	
	0.226116	
	0.219702	
	0.230392	
	0.226773	
	0.233352	
	0.230720	
	0.236477	
	0.248318	
	0.260817	
	0.276441	
	0.284170	
	0.277756	
	0.301274	
	0.298149	
	0.289597	
	0.289762	
	0.300616	
	0.316404	
	0.325450	
	0.409489	
	0.466393	
	0.555530	
	0.573785	
	0.608158	
	0.617861	
	0.611447	
	0.612434	
	0.609309	
	0.595659	
	0.594343	
	0.574772	
	0.505534	
	0.365414	
	0.360809	
	0.347652	
	0.335975	
	0.341238	
	0.314924	
	0.287459	
	0.276112	
	0.279894	
	0.270849	
	0.269369	
	0.264435	
	0.266408	
	0.268217	
	0.280716	
	0.281374	0.109562
	0.292887	
	0.298643	
	0.315089	
	0.340416	
	0.439914	
	0.475767	
	0.526256	
	0.556353	
	0.556517	
	0.556846	
	0.569345	
	0.582995	
	0.594508	
	0.609473	
	0.611283	
	0.623782	
	0.623946	
	0.609309	
	0.602237	
	0.594179	
	0.603717	
	0.621150	
	0.632005	
	0.626248	
	0.610296	
	0.601086	
	0.602731	
	0.602237	
	0.597468	
	0.578555	
	0.542209	
	0.403569	
	0.330055	
	0.256870	
	0.233352	
	0.230063	
	0.230885	
	0.243548	
	0.252758	
	0.291571	
	0.401431	
	0.551583	
	0.569016	
	0.582995	
	0.597468	
	0.590396	
	0.582337	
	0.587436	
	0.584475	
	0.606842	
	0.627400	
	0.632662	
	0.619670	
	0.613914	
	0.603060	
	0.605033	
	0.615230	
	0.612105	
	0.598290	
	0.585133	
	0.601415	
	0.609802	
	0.600922	
	0.581680	
	0.506521	
	0.302425	
	0.278907	
	0.264435	
	0.248647	
	0.231214	
	0.206545	
	0.189276	
	0.182369	
	0.178422	
	0.181876	
	0.201282	
	0.226609	
	0.252758	
	0.301603	
	0.362782	
	0.378900	
	0.365085	
	0.420015	
	0.390576	
	0.320516	
	0.285979	
	0.266902	
	0.279401	
	0.306701	
	0.333508	
	0.348639	
	0.533657	
	0.580693	
	0.616874	
	0.618190	
	0.620492	
	0.626577	
	0.629044	
	0.617039	
	0.604046	0.085386
	0.594836	
	0.597139	
	0.583324	
	0.566714	
	0.566056	
	0.566878	
	0.584969	
	0.584147	
	0.552899	
	0.443039	
	0.315253	
	0.286308	
	0.286966	
	0.275125	
	0.286802	
	0.293709	
	0.286802	
	0.268382	
	0.248976	
	0.239108	
	0.267724	
	0.287624	
	0.302754	
	0.299301	
	0.330877	
	0.441395	
	0.551583	
	0.575266	
	0.584311	
	0.593027	
	0.603717	
	0.618519	
	0.623946	
	0.608651	
	0.597303	
	0.595330	
	0.595330	
	0.566714	
	0.563096	
	0.545992	
	0.535631	
	0.545334	
	0.495173	
	0.371170	
	0.330219	
	0.323147	
	0.310977	
	0.289926	
	0.286966	
	0.288775	
	0.278414	
	0.262790	
	0.254403	
	0.240917	
	0.234996	
	0.226938	
	0.232036	
	0.242726	
	0.248811	
	0.269862	
	0.306208	
	0.333837	
	0.375610	
	0.430047	
	0.518033	
	0.547472	
	0.562602	
	0.564247	
	0.577733	
	0.581844	
	0.589245	
	0.601250	
	0.610625	
	0.619341	
	0.617532	
	0.614078	
	0.613914	
	0.621808	
	0.607500	
	0.591054	
	0.570003	
	0.563918	
	0.546978	
	0.546978	
	0.550925	
	0.526092	
	0.463268	
	0.357026	
	0.316404	
	0.293544	
	0.293380	
	0.283019	
	0.269369	
	0.254403	
	0.251442	
	0.246673	
	0.258679	
	0.265751	
	0.269040	
	0.274467	0.094333
	0.294860	
	0.282690	
	0.281045	
	0.295682	
	0.356204	
	0.526585	
	0.566385	
	0.580035	
	0.591218	
	0.598290	
	0.600264	
	0.596646	
	0.599112	
	0.611447	
	0.602566	
	0.591712	
	0.587107	
	0.611118	
	0.634965	
	0.634307	
	0.624768	
	0.606184	
	0.588422	
	0.584311	
	0.561286	
	0.587271	
	0.594672	
	0.589903	
	0.595988	
	0.593850	
	0.586778	
	0.558326	
	0.357849	
	0.240095	
	0.212630	
	0.199473	
	0.200295	
	0.204078	
	0.211479	
	0.217892	
	0.222333	
	0.218715	
	0.243055	
	0.280716	
	0.353079	
	0.535795	
	0.563424	
	0.577404	
	0.582831	
	0.590232	
	0.592205	
	0.595330	
	0.584311	
	0.594672	
	0.585133	
	0.580857	
	0.565562	
	0.563918	
	0.568194	
	0.572963	
	0.567372	
	0.549610	
	0.544676	
	0.559313	
	0.553886	
	0.518856	
	0.406858	
	0.378900	
	0.548459	
	0.547307	
	0.543854	
	0.543031	
	0.548459	
	0.514580	
	0.534644	
	0.526256	
	0.483003	
	0.471326	
	0.387780	
	0.295682	
	0.273480	
	0.255061	
	0.263777	
	0.284170	
	0.296834	
	0.286144	
	0.264270	
	0.291242	
	0.379228	
	0.570661	
	0.588587	
	0.605197	
	0.619670	
	0.624604	
	0.616216	
	0.620657	
	0.626413	
	0.638254	
	0.634965	
	0.615230	0.096295
	0.567372	
	0.522474	
	0.368867	
	0.311471	
	0.255718	
	0.232201	
	0.231214	
	0.230720	
	0.237134	
	0.235819	
	0.233187	
	0.228747	
	0.238615	
	0.239766	
	0.243713	
	0.245522	
	0.255225	
	0.256541	
	0.253909	
	0.257199	
	0.264599	
	0.275289	
	0.305879	
	0.348968	
	0.376433	
	0.421166	
	0.537111	
	0.589574	
	0.603882	
	0.621644	
	0.636445	
	0.642366	
	0.639899	
	0.649109	
	0.640063	
	0.645490	
	0.632005	
	0.613256	
	0.583160	
	0.543689	
	0.454058	
	0.375610	
	0.302261	
	0.291900	
	0.287295	
	0.295518	
	0.308017	
	0.306208	
	0.320187	
	0.309168	
	0.274796	
	0.252429	
	0.242068	
	0.228582	
	0.230885	
	0.242397	
	0.259337	
	0.272493	
	0.290584	
	0.318049	
	0.423304	
	0.399457	
	0.508495	
	0.528723	
	0.541387	
	0.552735	
	0.587271	
	0.622137	
	0.639570	
	0.645161	
	0.642530	
	0.639405	
	0.631182	
	0.631511	
	0.621808	
	0.629209	
	0.638419	
	0.628386	
	0.600428	
	0.561451	
	0.504876	
	0.514251	
	0.535795	
	0.571648	
	0.582009	
	0.590725	
	0.588587	
	0.569674	
	0.531684	
	0.335811	
	0.306372	
	0.269040	
	0.225787	
	0.216248	
	0.229569	
	0.249469	
	0.260323	
	0.241575	
	0.264764	
	0.357849	0.109131
	0.567865	
	0.587929	
	0.599441	
	0.579377	
	0.570825	
	0.543525	
	0.499943	
	0.478398	
	0.339264	
	0.384820	
	0.558491	
	0.593192	
	0.611447	
	0.638747	
	0.642201	
	0.640885	
	0.633978	
	0.625591	
	0.604704	
	0.576910	
	0.524447	
	0.351106	
	0.309333	
	0.311142	
	0.313444	
	0.291242	
	0.272987	
	0.257199	
	0.250620	
	0.247166	
	0.250456	
	0.272000	
	0.298972	
	0.287624	
	0.273480	
	0.260488	
	0.273151	
	0.286637	
	0.278907	
	0.262626	
	0.283677	
	0.306537	
	0.355875	
	0.359658	
	0.510633	
	0.595988	
	0.613421	
	0.614901	
	0.597139	
	0.598455	
	0.624275	
	0.639076	
	0.634965	
	0.623453	
	0.621972	
	0.622795	
	0.589245	
	0.533164	
	0.508495	
	0.395181	
	0.353737	
	0.365414	
	0.351764	
	0.401595	
	0.529546	
	0.551090	
	0.489088	
	0.302754	
	0.271836	
	0.269369	
	0.276441	
	0.304892	
	0.381860	
	0.351270	
	0.285157	
	0.265915	
	0.254403	
	0.241739	
	0.230063	
	0.233187	
	0.248318	
	0.259008	
	0.298314	
	0.349297	
	0.391070	
	0.465570	
	0.529217	
	0.562438	
	0.550432	
	0.498462	
	0.366894	
	0.309004	
	0.319858	
	0.347981	
	0.421988	
	0.527572	
	0.549774	
	0.556024	
	0.547472	
	0.525105	0.048189
	0.507508	
	0.516882	
	0.480536	
	0.410312	
	0.392056	
	0.400444	
	0.395017	
	0.338113	
	0.318049	
	0.297820	
	0.288282	
	0.277098	
	0.266079	
	0.251771	
	0.255225	
	0.257199	
	0.268053	
	0.272822	
	0.276934	
	0.283512	
	0.307359	
	0.316569	
	0.345514	
	0.372814	
	0.429060	
	0.467873	
	0.463432	
	0.521980	
	0.518856	
	0.533164	
	0.549116	
	0.565398	
	0.574937	
	0.591712	
	0.594179	
	0.598126	
	0.594508	
	0.595494	
	0.594014	
	0.583818	
	0.573785	
	0.568687	
	0.554873	
	0.542702	
	0.520665	
	0.468366	
	0.423468	
	0.340745	
	0.326108	
	0.300123	
	0.291735	
	0.287295	
	0.284499	
	0.272165	
	0.273974	
	0.273480	
	0.276605	
	0.283348	
	0.284664	
	0.290584	
	0.303248	
	0.307688	
	0.331699	
	0.356697	
	0.408502	
	0.488266	
	0.528230	
	0.568029	
	0.594508	
	0.616710	
	0.632827	
	0.650918	
	0.665061	
	0.670488	
	0.664897	
	0.663746	
	0.665390	
	0.663252	
	0.657167	
	0.656509	
	0.655358	
	0.646148	
	0.638912	
	0.641543	
	0.641379	
	0.628880	
	0.601744	
	0.493035	
	0.289433	
	0.231214	
	0.199144	
	0.177600	
	0.171679	
	0.173324	
	0.173817	
	0.175462	
	0.176613	
	0.246509	
	0.267889	
	0.324792	0.079996
	0.520500	
	0.546485	
	0.544676	
	0.556188	
	0.571154	
	0.561122	
	0.570496	
	0.580693	
	0.574114	
	0.584804	
	0.601744	
	0.604046	
	0.604704	
	0.626742	
	0.647464	
	0.668350	
	0.680849	
	0.691539	
	0.685125	
	0.670324	
	0.663581	
	0.654371	
	0.639405	
	0.629044	
	0.620328	
	0.617203	
	0.617861	
	0.592534	
	0.495831	
	0.333673	
	0.277756	
	0.242233	
	0.232036	
	0.223320	
	0.216248	
	0.198651	
	0.190756	
	0.186480	
	0.178915	
	0.170034	
	0.170363	
	0.171679	
	0.172666	
	0.173653	
	0.174639	
	0.176448	
	0.177600	
	0.253416	
	0.281374	
	0.305715	
	0.317062	
	0.367223	
	0.466064	
	0.548459	
	0.566220	
	0.582009	
	0.577897	
	0.575923	
	0.568358	
	0.563096	
	0.550268	
	0.549610	
	0.515073	
	0.489417	
	0.387616	
	0.370841	
	0.364098	
	0.352750	
	0.330384	
	0.293709	
	0.289268	
	0.285815	
	0.287295	
	0.275783	
	0.265586	
	0.258679	
	0.258843	
	0.265422	
	0.271013	
	0.276441	
	0.291900	
	0.299958	
	0.313115	
	0.334660	
	0.377419	
	0.424126	
	0.468366	
	0.526256	
	0.549610	
	0.568852	
	0.575759	
	0.588094	
	0.588751	
	0.600757	
	0.603388	
	0.608158	
	0.609145	
	0.605855	
	0.604704	
	0.601908	0.085390
	0.591054	
	0.585298	
	0.569181	
	0.559477	
	0.540236	
	0.515237	
	0.480372	
	0.402088	
	0.352257	
	0.319365	
	0.300616	
	0.286802	
	0.280881	
	0.276276	
	0.273645	
	0.271342	
	0.286802	
	0.286144	
	0.283348	
	0.278414	
	0.281045	
	0.288446	
	0.300123	
	0.311306	
	0.329232	
	0.361467	
	0.395181	
	0.505699	
	0.542209	
	0.560300	
	0.571976	
	0.582995	
	0.581022	
	0.587600	
	0.585956	
	0.594508	
	0.588916	
	0.594179	
	0.595165	
	0.592863	
	0.590396	
	0.590725	
	0.577568	
	0.565727	
	0.550761	
	0.538098	
	0.523789	
	0.401924	
	0.329397	
	0.288775	
	0.279236	
	0.269369	
	0.268875	
	0.263613	
	0.261310	
	0.262297	
	0.261968	
	0.262461	
	0.267560	
	0.271836	
	0.286473	
	0.294860	
	0.307030	
	0.311800	
	0.330548	
	0.369525	
	0.449947	
	0.546485	
	0.575266	
	0.595001	
	0.605855	
	0.616216	
	0.621150	
	0.629867	
	0.635787	
	0.637103	
	0.632005	
	0.634965	
	0.648286	
	0.653220	
	0.663417	
	0.684468	
	0.674271	
	0.665226	
	0.661443	
	0.657167	
	0.640721	
	0.619177	
	0.600593	
	0.587929	
	0.580528	
	0.569674	
	0.521487	
	0.401431	
	0.289926	
	0.256541	
	0.226116	
	0.195032	
	0.175955	
	0.174146	0.082161
	0.183191	
	0.177600	
	0.175133	
	0.176119	
	0.193717	
	0.250620	
	0.286144	
	0.317062	
	0.329232	
	0.366729	
	0.359987	
	0.401102	
	0.441724	
	0.385313	
	0.350612	
	0.365085	
	0.480865	
	0.568523	
	0.592698	
	0.600099	
	0.603553	
	0.607664	
	0.572634	
	0.527572	
	0.389096	
	0.440408	
	0.473300	
	0.346994	
	0.315089	
	0.306372	
	0.320352	
	0.322325	
	0.295847	
	0.271342	
	0.253580	
	0.246838	
	0.236312	
	0.230556	
	0.247824	
	0.268875	
	0.283348	
	0.283019	
	0.303905	
	0.315089	
	0.339593	
	0.351106	
	0.400608	
	0.501587	
	0.541387	
	0.561615	
	0.566220	
	0.574772	
	0.588587	
	0.606020	
	0.610789	
	0.618848	
	0.615230	
	0.613749	
	0.609309	
	0.606678	
	0.597632	
	0.596152	
	0.589574	
	0.582173	
	0.566549	
	0.551419	
	0.501258	
	0.367058	
	0.321996	
	0.300287	
	0.292722	
	0.293380	
	0.296834	
	0.287295	
	0.278907	
	0.273480	
	0.275618	
	0.281374	
	0.285650	
	0.286966	
	0.292393	
	0.294531	
	0.306043	
	0.315089	
	0.333837	
	0.359000	
	0.398799	
	0.481523	
	0.520007	
	0.545005	
	0.559148	
	0.567536	
	0.574608	
	0.593356	
	0.605691	
	0.605362	
	0.601579	
	0.596317	
	0.594179	
	0.589080	0.062926
	0.575595	
	0.569674	
	0.558984	
	0.543854	
	0.523625	
	0.442381	
	0.377090	
	0.321009	
	0.306372	
	0.297656	
	0.296340	
	0.294531	
	0.287459	
	0.280388	
	0.271342	
	0.275125	
	0.278907	
	0.282854	
	0.287295	
	0.292558	
	0.304399	
	0.312622	
	0.338771	
	0.376104	
	0.424620	
	0.499943	
	0.513428	
	0.541716	
	0.557010	
	0.571812	
	0.574114	
	0.577733	
	0.573950	
	0.581186	
	0.587107	
	0.593356	
	0.593685	
	0.596317	
	0.595659	
	0.591383	
	0.584804	
	0.582009	
	0.573292	
	0.566878	
	0.556682	
	0.545992	
	0.542867	
	0.511290	
	0.460472	
	0.395839	
	0.408009	
	0.372979	
	0.354724	
	0.315747	
	0.295025	
	0.279565	
	0.273645	
	0.272329	
	0.271178	
	0.271013	
	0.287130	
	0.303741	
	0.327752	
	0.326272	
	0.307688	
	0.299629	
	0.321174	
	0.415903	
	0.520336	
	0.555037	
	0.553392	
	0.570825	
	0.578884	
	0.582502	
	0.581186	
	0.596152	
	0.607993	
	0.597468	
	0.586285	
	0.576746	
	0.566549	
	0.559971	
	0.551912	
	0.566220	
	0.569016	
	0.580528	
	0.589409	
	0.588751	
	0.578719	
	0.552406	
	0.516882	
	0.355053	
	0.301439	
	0.266244	
	0.245193	
	0.234996	
	0.234832	
	0.236641	
	0.245029	
	0.257692	0.078532
	0.281374	
	0.289268	
	0.303248	
	0.311800	
	0.340251	
	0.369196	
	0.446164	
	0.526256	
	0.555859	
	0.580693	
	0.592205	
	0.594836	
	0.597797	
	0.601908	
	0.611940	
	0.610954	
	0.615394	
	0.615394	
	0.618683	
	0.619177	
	0.621972	
	0.617203	
	0.607007	
	0.595330	
	0.577733	
	0.570496	
	0.563260	
	0.546649	
	0.529052	
	0.441559	
	0.355711	
	0.292722	
	0.265257	
	0.236641	
	0.222333	
	0.229405	
	0.255225	
	0.282032	
	0.334660	
	0.427580	
	0.523296	
	0.543689	
	0.539907	
	0.458663	
	0.486786	
	0.570332	
	0.579213	
	0.586778	
	0.576910	
	0.567865	
	0.558984	
	0.567700	
	0.565234	
	0.542538	
	0.535466	
	0.524447	
	0.491720	
	0.508659	
	0.569674	
	0.596810	
	0.610460	
	0.605691	
	0.594179	
	0.595330	
	0.586778	
	0.567700	
	0.552570	
	0.533493	
	0.542373	
	0.550925	
	0.475931	
	0.348803	
	0.308510	
	0.298972	
	0.295189	
	0.293380	
	0.283348	
	0.275947	
	0.277592	
	0.262626	
	0.269698	
	0.286802	
	0.327094	
	0.392714	
	0.506686	
	0.489088	
	0.351106	
	0.328575	
	0.313115	
	0.316898	
	0.327423	
	0.333015	
	0.355875	
	0.468366	
	0.548623	
	0.564576	
	0.574443	
	0.579706	
	0.583160	
	0.590396	0.057384
	0.592698	
	0.591712	
	0.584804	
	0.576910	
	0.566878	
	0.548787	
	0.534644	
	0.499120	
	0.398470	
	0.340580	
	0.308510	
	0.284170	
	0.264599	
	0.248647	
	0.237134	
	0.236805	
	0.244535	
	0.256376	
	0.271671	
	0.279401	
	0.291735	
	0.300123	
	0.313609	
	0.327259	
	0.360644	
	0.375775	
	0.391892	
	0.463597	
	0.531355	
	0.558162	
	0.568029	
	0.572305	
	0.574937	
	0.586778	
	0.593850	
	0.595988	
	0.599277	
	0.593521	
	0.590067	
	0.588094	
	0.576088	
	0.570661	
	0.557668	
	0.554544	
	0.526750	
	0.501423	
	0.450440	
	0.346172	
	0.314266	
	0.299794	
	0.289597	
	0.282690	
	0.276441	
	0.279236	
	0.269533	
	0.274960	
	0.272329	
	0.269862	
	0.273809	
	0.277263	
	0.290584	
	0.303905	
	0.312128	
	0.327259	
	0.349132	
	0.389425	
	0.439750	
	0.513428	
	0.537933	
	0.558984	
	0.568358	
	0.579377	
	0.583324	
	0.588258	
	0.595165	
	0.595330	
	0.597139	
	0.595988	
	0.592041	
	0.589080	
	0.581351	
	0.574279	
	0.569181	
	0.553392	
	0.543854	
	0.512442	
	0.503067	
	0.440737	
	0.367223	
	0.328903	
	0.311471	
	0.305386	
	0.295189	
	0.293873	
	0.280059	
	0.280223	
	0.278578	
	0.282197	
	0.284170	
	0.287953	0.048458
	0.301932	
	0.308181	
	0.320516	
	0.336798	
	0.374788	
	0.448302	
	0.499285	
	0.532835	
	0.563096	
	0.583818	
	0.591218	
	0.602237	
	0.609967	
	0.613421	
	0.620821	
	0.616052	
	0.618848	
	0.616874	
	0.614078	
	0.609473	
	0.602402	
	0.585791	
	0.562273	
	0.528559	
	0.487279	
	0.404884	
	0.355217	
	0.339922	
	0.325450	
	0.306537	
	0.300452	
	0.288446	
	0.273974	
	0.263613	
	0.254732	
	0.263119	
	0.267066	
	0.273809	
	0.273316	
	0.279236	
	0.291735	
	0.304234	
	0.309004	
	0.315582	
	0.335153	
	0.380873	
	0.471162	
	0.530368	
	0.562109	
	0.586449	
	0.594508	
	0.603553	
	0.609145	
	0.616216	
	0.622301	
	0.620986	
	0.614572	
	0.609802	
	0.609145	
	0.604704	
	0.595494	
	0.585298	
	0.584311	
	0.577239	
	0.555859	
	0.515237	
	0.410312	
	0.329726	
	0.302590	
	0.289762	
	0.293709	
	0.287130	
	0.275783	
	0.271342	
	0.259501	
	0.259337	
	0.259172	
	0.264106	
	0.276769	
	0.285157	
	0.296340	
	0.300123	
	0.307524	
	0.311800	
	0.318378	
	0.335646	
	0.368539	
	0.439092	
	0.522638	
	0.548459	
	0.570496	
	0.581186	
	0.587107	
	0.590725	
	0.603388	
	0.606678	
	0.604869	
	0.600428	
	0.604869	
	0.600593	0.030208
	0.592698	
	0.581515	
	0.571319	
	0.553557	
	0.535960	
	0.511784	
	0.454880	
	0.377748	
	0.352421	
	0.320352	
	0.315089	
	0.301274	
	0.296176	
	0.291735	
	0.276441	
	0.280223	
	0.276441	
	0.278250	
	0.283019	
	0.290749	
	0.301603	
	0.310813	
	0.320352	
	0.337784	
	0.374952	
	0.474616	
	0.519513	
	0.531355	
	0.557833	
	0.573950	
	0.586285	
	0.601415	
	0.610460	
	0.617697	
	0.622466	
	0.621479	
	0.624933	
	0.616874	
	0.602895	
	0.590067	
	0.575101	
	0.556353	
	0.544511	
	0.524776	
	0.503396	
	0.400608	
	0.368045	
	0.341896	
	0.318214	
	0.307688	
	0.298149	
	0.293544	
	0.293051	
	0.283512	
	0.273645	
	0.274138	
	0.271507	
	0.279072	
	0.281868	
	0.285321	
	0.289926	
	0.295682	
	0.317227	
	0.350448	
	0.445506	
	0.506192	
	0.516882	
	0.528559	
	0.553063	
	0.557175	
	0.567372	
	0.576746	
	0.589738	
	0.601415	
	0.608322	
	0.607829	
	0.606842	
	0.601086	
	0.596152	
	0.596481	
	0.589903	
	0.583653	
	0.577075	
	0.562109	
	0.546649	
	0.514251	
	0.457183	
	0.360151	
	0.325285	
	0.307030	
	0.299136	
	0.291078	
	0.285157	
	0.279565	
	0.267560	
	0.274631	
	0.271671	
	0.269204	
	0.275454	
	0.277921	0.040818
	0.285157	
	0.295189	
	0.303741	
	0.321338	
	0.351764	
	0.401760	
	0.471162	
	0.505534	
	0.537933	
	0.553063	
	0.568687	
	0.578061	
	0.584804	
	0.590889	
	0.603224	
	0.603224	
	0.607993	
	0.606349	
	0.605855	
	0.600757	
	0.591218	
	0.583653	
	0.579542	
	0.564411	
	0.534973	
	0.479714	
	0.401760	
	0.351764	
	0.329232	
	0.311635	
	0.288611	
	0.261475	
	0.244700	
	0.238943	
	0.231378	
	0.240588	
	0.253416	
	0.265586	
	0.272000	
	0.285321	
	0.316240	
	0.359329	
	0.405049	
	0.501752	
	0.516718	
	0.549610	
	0.565398	
	0.558984	
	0.573292	
	0.580199	
	0.580199	
	0.577075	
	0.585133	
	0.598290	
	0.608487	
	0.604046	
	0.607829	
	0.598784	
	0.598290	
	0.601908	
	0.597303	
	0.588258	
	0.579377	
	0.566220	
	0.555201	
	0.536288	
	0.503725	
	0.451098	
	0.341238	
	0.317720	
	0.298972	
	0.287295	
	0.275783	
	0.265915	
	0.250127	
	0.256376	
	0.259008	
	0.264599	
	0.273809	
	0.280059	
	0.291242	
	0.302425	
	0.311964	
	0.328081	
	0.358342	
	0.400608	
	0.458170	
	0.497476	
	0.543196	
	0.558326	
	0.573785	
	0.577075	
	0.579048	
	0.578555	
	0.594836	
	0.597139	
	0.602731	
	0.599441	
	0.597139	
	0.588587	0.031135
	0.581844	
	0.577733	
	0.567700	
	0.554544	
	0.537440	
	0.521158	
	0.487608	
	0.450933	
	0.356697	
	0.327917	
	0.312457	
	0.299794	
	0.295847	
	0.291078	
	0.278743	
	0.277592	
	0.277427	
	0.283677	
	0.287953	
	0.301274	
	0.313115	
	0.330877	
	0.331699	
	0.371170	
	0.411463	
	0.499120	
	0.517869	
	0.524612	
	0.553228	
	0.567536	
	0.577568	
	0.581186	
	0.585298	
	0.584804	
	0.588422	
	0.590889	
	0.597303	
	0.594343	
	0.593192	
	0.595823	
	0.594179	
	0.583653	
	0.572305	
	0.554708	
	0.531190	
	0.499449	
	0.445342	
	0.406529	
	0.341731	
	0.319858	
	0.314431	
	0.301767	
	0.290255	
	0.286966	
	0.271013	
	0.275125	
	0.270355	
	0.268546	
	0.272000	
	0.271671	
	0.274138	
	0.284335	
	0.286637	
	0.304728	
	0.325614	
	0.364591	
	0.429882	
	0.496818	
	0.545169	
	0.561451	
	0.571319	
	0.570661	
	0.574608	
	0.580035	
	0.590396	
	0.590560	
	0.594672	
	0.594836	
	0.593521	
	0.593356	
	0.582502	
	0.574937	
	0.571483	
	0.551254	
	0.528230	
	0.508330	
	0.498791	
	0.475274	
	0.367058	
	0.341896	
	0.318871	
	0.308510	
	0.299794	
	0.303083	
	0.281703	
	0.290913	
	0.284006	
	0.290420	
	0.291242	
	0.296998	0.027455
	0.312128	
	0.345514	
	0.331699	
	0.339922	
	0.359164	
	0.436790	
	0.478892	
	0.474451	
	0.509152	
	0.534479	
	0.556353	
	0.573785	
	0.581515	
	0.587600	
	0.595494	
	0.602073	
	0.602731	
	0.597303	
	0.598948	
	0.596810	
	0.591218	
	0.585956	
	0.585956	
	0.569181	
	0.552899	
	0.529546	
	0.483332	
	0.383340	
	0.320023	
	0.303577	
	0.289433	
	0.286308	
	0.275125	
	0.275454	
	0.257528	
	0.256212	
	0.253745	
	0.260981	
	0.264599	
	0.270849	
	0.281539	
	0.290749	
	0.296505	
	0.307195	
	0.326930	
	0.357849	
	0.402253	
	0.468695	
	0.529381	
	0.549610	
	0.572470	
	0.577239	
	0.584475	
	0.582009	
	0.594672	
	0.594508	
	0.598290	
	0.594014	
	0.592205	
	0.590725	
	0.585298	
	0.577239	
	0.571976	
	0.562273	
	0.546321	
	0.525105	
	0.459156	
	0.428073	
	0.363111	
	0.330713	
	0.307853	
	0.298972	
	0.292558	
	0.287788	
	0.272658	
	0.272329	
	0.265586	
	0.268382	
	0.271013	
	0.274303	
	0.283183	
	0.294367	
	0.301439	
	0.311635	
	0.326930	
	0.357191	
	0.398470	
	0.433500	
	0.531355	
	0.554050	
	0.569510	
	0.576746	
	0.586285	
	0.593850	
	0.601415	
	0.595823	
	0.601744	
	0.596317	
	0.597797	
	0.594836	0.029937
	0.585627	
	0.574443	
	0.576088	
	0.561451	
	0.547965	
	0.524941	
	0.499778	
	0.455045	
	0.353244	
	0.323805	
	0.308510	
	0.296834	
	0.288775	
	0.285650	
	0.270684	
	0.272329	
	0.271342	
	0.280388	
	0.278578	
	0.279894	
	0.286637	
	0.304399	
	0.309333	
	0.334002	
	0.365578	
	0.405049	
	0.503725	
	0.522145	
	0.553721	
	0.560300	
	0.570661	
	0.575759	
	0.586613	
	0.595165	
	0.604046	
	0.604375	
	0.606349	
	0.605033	
	0.600593	
	0.597139	
	0.591383	
	0.582173	
	0.576581	
	0.559148	
	0.545827	
	0.524118	
	0.488759	
	0.453400	
	0.362289	
	0.324792	
	0.310484	
	0.298314	
	0.286637	
	0.279236	
	0.263284	
	0.262790	
	0.259830	
	0.265586	
	0.266408	
	0.268217	
	0.274467	
	0.287295	
	0.291571	
	0.312128	
	0.326765	
	0.352750	
	0.401924	
	0.471162	
	0.529710	
	0.558655	
	0.577075	
	0.581022	
	0.589903	
	0.594508	
	0.604540	
	0.599770	
	0.601250	
	0.595823	
	0.593192	
	0.589245	
	0.585298	
	0.580528	
	0.578226	
	0.562602	
	0.556517	
	0.530861	
	0.517869	
	0.483990	
	0.375446	
	0.334002	
	0.310977	
	0.299465	
	0.287624	
	0.283841	
	0.269698	
	0.268217	
	0.261475	
	0.268053	
	0.272329	
	0.276441	0.037881
	0.284335	
	0.300945	
	0.315747	
	0.348803	
	0.379886	
	0.500107	
	0.529381	
	0.540729	
	0.564411	
	0.578226	
	0.587929	
	0.595988	
	0.597139	
	0.590067	
	0.595988	
	0.578719	
	0.574772	
	0.569510	
	0.574443	
	0.576252	
	0.573457	
	0.561944	
	0.569181	
	0.568687	
	0.565234	
	0.548787	
	0.530039	
	0.513757	
	0.405542	
	0.360315	
	0.331206	
	0.320845	
	0.296834	
	0.284006	
	0.266408	
	0.257692	
	0.249962	
	0.251936	
	0.257034	
	0.269533	
	0.289268	
	0.319694	
	0.337620	
	0.372486	
	0.449947	
	0.502245	
	0.508330	
	0.527408	
	0.553557	
	0.559806	
	0.548130	
	0.532835	
	0.540071	
	0.559642	
	0.579871	
	0.586285	
	0.596317	
	0.592370	
	0.591547	
	0.587929	
	0.582502	
	0.574937	
	0.569674	
	0.547801	
	0.519678	
	0.475438	
	0.398635	
	0.360809	
	0.319529	
	0.303905	
	0.290420	
	0.286802	
	0.280388	
	0.281374	
	0.267560	
	0.267395	
	0.263941	
	0.266573	
	0.271342	
	0.274467	
	0.282032	
	0.296176	
	0.297985	
	0.321338	
	0.331864	
	0.358013	
	0.398964	
	0.471984	
	0.540400	
	0.549774	
	0.562109	
	0.571483	
	0.583818	
	0.587929	
	0.596481	
	0.593192	
	0.600428	
	0.592863	
	0.591712	
	0.591876	0.031321
	0.588422	
	0.583160	
	0.579706	
	0.567043	
	0.556846	
	0.532012	
	0.515566	
	0.490568	
	0.381366	
	0.342883	
	0.313609	
	0.302919	
	0.291242	
	0.289597	
	0.271836	
	0.272658	
	0.269369	
	0.270849	
	0.278085	
	0.282032	
	0.294531	
	0.315418	
	0.323805	
	0.345185	
	0.354395	
	0.363440	
	0.401595	
	0.480372	
