	0.525598	0.133817
	0.479221	
	0.424455	
	0.343869	
	0.319858	
	0.301603	
	0.293544	
	0.284499	
	0.283677	
	0.272658	
	0.274467	
	0.275289	
	0.276112	
	0.282032	
	0.285321	
	0.292064	
	0.305057	
	0.300781	
	0.322490	
	0.335317	
	0.376104	
	0.428238	
	0.495338	
	0.544018	
	0.556353	
	0.570332	
	0.578555	
	0.584640	
	0.584969	
	0.598290	
	0.593521	
	0.597797	
	0.593685	
	0.590725	
	0.589409	
	0.580528	
	0.569181	
	0.564740	
	0.551748	
	0.542702	
	0.506192	
	0.473958	
	0.414423	
	0.349297	
	0.322818	
	0.316898	
	0.301932	
	0.298807	
	0.296340	
	0.283348	
	0.288446	
	0.281703	
	0.288282	
	0.290091	
	0.291571	
	0.297820	
	0.314760	
	0.316404	
	0.345350	
	0.366236	
	0.369032	
	0.392550	
	0.441395	
	0.508495	
	0.536288	
	0.555037	
	0.564411	
	0.572634	
	0.577568	
	0.590560	
	0.591383	
	0.593027	
	0.590560	
	0.585956	
	0.585462	
	0.584311	
	0.572799	
	0.565069	
	0.548294	
	0.539742	
	0.510961	
	0.473958	
	0.395675	
	0.337949	
	0.320352	
	0.302919	
	0.296340	
	0.286637	
	0.288940	
	0.276112	
	0.278743	
	0.271836	
	0.277263	
	0.280388	
	0.288446	
	0.300287	
	0.317062	
	0.321174	
	0.335482	
	0.349626	
	0.376762	0.050141
	0.442217	
	0.492213	
	0.533493	
	0.554708	
	0.566385	
	0.578061	
	0.580364	
	0.581844	
	0.592698	
	0.590396	
	0.590725	
	0.593192	
	0.591218	
	0.590725	
	0.585462	
	0.575101	
	0.567372	
	0.555037	
	0.542209	
	0.518033	
	0.473136	
	0.456032	
	0.352586	
	0.320680	
	0.307359	
	0.300452	
	0.292393	
	0.290749	
	0.277098	
	0.279072	
	0.280059	
	0.283512	
	0.279730	
	0.284006	
	0.293051	
	0.312293	
	0.317062	
	0.341074	
	0.344527	
	0.372321	
	0.409983	
	0.484483	
	0.536946	
	0.553557	
	0.564247	
	0.571319	
	0.578555	
	0.584640	
	0.595823	
	0.597139	
	0.599441	
	0.597303	
	0.597632	
	0.592205	
	0.583324	
	0.573621	
	0.577404	
	0.562438	
	0.557175	
	0.522638	
	0.494186	
	0.443204	
	0.348474	
	0.318871	
	0.300123	
	0.296505	
	0.290584	
	0.284006	
	0.272822	
	0.271507	
	0.270520	
	0.270849	
	0.277921	
	0.282526	
	0.289104	
	0.302754	
	0.311800	
	0.330219	
	0.358177	
	0.443204	
	0.512113	
	0.537440	
	0.555695	
	0.565069	
	0.570332	
	0.581186	
	0.589409	
	0.584969	
	0.596974	
	0.594836	
	0.596152	
	0.595330	
	0.594179	
	0.590067	
	0.585956	
	0.576581	
	0.574114	
	0.558162	
	0.538591	
	0.520171	0.037683
	0.503232	
	0.479714	
	0.372321	
	0.333179	
	0.309333	
	0.295518	
	0.286144	
	0.284006	
	0.270520	
	0.273645	
	0.272493	
	0.277427	
	0.283019	
	0.289597	
	0.299958	
	0.318542	
	0.328081	
	0.388767	
	0.429553	
	0.494844	
	0.525434	
	0.541058	
	0.561122	
	0.571483	
	0.580857	
	0.579706	
	0.585298	
	0.585956	
	0.595494	
	0.592863	
	0.597961	
	0.593521	
	0.588916	
	0.584311	
	0.576581	
	0.551419	
	0.539578	
	0.511290	
	0.506357	
	0.476096	
	0.439586	
	0.390741	
	0.330877	
	0.311142	
	0.297656	
	0.293215	
	0.287459	
	0.282690	
	0.271013	
	0.269862	
	0.271671	
	0.280223	
	0.281374	
	0.285157	
	0.288446	
	0.304234	
	0.307853	
	0.327588	
	0.346830	
	0.372486	
	0.402088	
	0.401924	
	0.521323	
	0.531026	
	0.554873	
	0.565234	
	0.579871	
	0.588422	
	0.598784	
	0.599277	
	0.599112	
	0.591712	
	0.587107	
	0.586613	
	0.575923	
	0.568687	
	0.570990	
	0.547636	
	0.545827	
	0.512277	
	0.461130	
	0.418206	
	0.359658	
	0.335646	
	0.315747	
	0.300616	
	0.291571	
	0.288282	
	0.280716	
	0.281045	
	0.277427	
	0.278250	
	0.282361	
	0.273974	
	0.276769	
	0.293051	
	0.301932	
	0.332357	
	0.343705	
	0.367552	0.033386
	0.421659	
	0.483990	
	0.538262	
	0.555037	
	0.564905	
	0.568358	
	0.579048	
	0.584969	
	0.595001	
	0.593356	
	0.594508	
	0.593521	
	0.593521	
	0.584640	
	0.583489	
	0.572963	
	0.569016	
	0.555859	
	0.546814	
	0.514744	
	0.490075	
	0.440737	
	0.344692	
	0.317720	
	0.300287	
	0.296834	
	0.285157	
	0.282197	
	0.271671	
	0.277756	
	0.271836	
	0.272329	
	0.277592	
	0.282197	
	0.295682	
	0.305221	
	0.310155	
	0.330384	
	0.338771	
	0.399622	
	0.442217	
	0.475438	
	0.539578	
	0.555037	
	0.567043	
	0.573785	
	0.581844	
	0.583489	
	0.593356	
	0.591054	
	0.594014	
	0.590560	
	0.588751	
	0.590560	
	0.586120	
	0.577897	
	0.571483	
	0.558491	
	0.545663	
	0.524612	
	0.485635	
	0.439257	
	0.346994	
	0.323147	
	0.309004	
	0.298807	
	0.285321	
	0.282690	
	0.278250	
	0.287953	
	0.282854	
	0.278907	
	0.283841	
	0.285486	
	0.295518	
	0.306372	
	0.312622	
	0.333673	
	0.348474	
	0.393865	
	0.444519	
	0.505370	
	0.546485	
	0.558655	
	0.566220	
	0.574772	
	0.582009	
	0.587271	
	0.598784	
	0.595165	
	0.600264	
	0.596974	
	0.596646	
	0.594014	
	0.586942	
	0.577404	
	0.575430	
	0.561286	
	0.550268	
	0.526750	0.027860
	0.492213	
	0.458499	
	0.356039	
	0.334002	
	0.308675	
	0.306208	
	0.294202	
	0.288446	
	0.274138	
	0.275289	
	0.267560	
	0.271507	
	0.275947	
	0.280223	
	0.290749	
	0.301274	
	0.310977	
	0.324299	
	0.349297	
	0.389918	
	0.424291	
	0.485141	
	0.536782	
	0.556353	
	0.570496	
	0.581680	
	0.586942	
	0.589080	
	0.598619	
	0.593521	
	0.598619	
	0.596974	
	0.595001	
	0.594014	
	0.588916	
	0.581844	
	0.576746	
	0.561451	
	0.536946	
	0.514909	
	0.480701	
	0.450933	
	0.341238	
	0.326930	
	0.317391	
	0.310155	
	0.296834	
	0.292887	
	0.277756	
	0.272987	
	0.276769	
	0.280223	
	0.283512	
	0.288611	
	0.295025	
	0.303577	
	0.297985	
	0.323641	
	0.327259	
	0.355053	
	0.380873	
	0.440572	
	0.527572	
	0.550597	
	0.570167	
	0.575101	
	0.581515	
	0.582995	
	0.587436	
	0.586120	
	0.590560	
	0.582502	
	0.585791	
	0.585956	
	0.589245	
	0.581515	
	0.578390	
	0.565891	
	0.551254	
	0.518198	
	0.482345	
	0.471655	
	0.361302	
	0.347816	
	0.327423	
	0.315582	
	0.307195	
	0.298807	
	0.289926	
	0.290255	
	0.288446	
	0.295847	
	0.291406	
	0.291900	
	0.299629	
	0.317391	
	0.318214	
	0.345678	
	0.347159	
	0.374459	0.053561
	0.411463	
	0.488595	
	0.535466	
	0.548294	
	0.565398	
	0.573292	
	0.579706	
	0.585133	
	0.598290	
	0.597468	
	0.606842	
	0.606020	
	0.605197	
	0.602895	
	0.600757	
	0.595001	
	0.597961	
	0.593027	
	0.575759	
	0.557668	
	0.539084	
	0.535466	
	0.489911	
	0.456689	
	0.452413	
	0.462774	
	0.453565	
	0.455374	
	0.381531	
	0.408338	
	0.418863	
	0.494186	
	0.526914	
	0.477740	
	0.399951	
	0.386629	
	0.397813	
	0.405542	
	0.464090	
	0.505534	
	0.513099	
	0.485799	
	0.499778	
	0.524941	
	0.535960	
	0.538591	
	0.528888	
	0.539249	
	0.567043	
	0.580364	
	0.593027	
	0.593521	
	0.587436	
	0.570661	
	0.556682	
	0.528065	
	0.501752	
	0.401431	
	0.340087	
	0.325285	
	0.317062	
	0.305550	
	0.281045	
	0.276441	
	0.276769	
	0.283677	
	0.281045	
	0.256870	
	0.238615	
	0.218550	
	0.204242	
	0.207531	
	0.211479	
	0.208847	
	0.216083	
	0.250620	
	0.312128	
	0.348310	
	0.384820	
	0.564247	
	0.596152	
	0.617039	
	0.646148	
	0.661279	
	0.669502	
	0.672791	
	0.673120	
	0.673778	
	0.676902	
	0.677396	
	0.680849	
	0.676245	
	0.660621	
	0.657496	
	0.656674	
	0.636609	
	0.620163	
	0.597139	
	0.568687	
	0.532670	0.075082
	0.351435	
	0.290091	
	0.264599	
	0.260652	
	0.252265	
	0.239108	
	0.239601	
	0.251607	
	0.255883	
	0.259830	
	0.249140	
	0.241739	
	0.238286	
	0.237299	
	0.242891	
	0.249140	
	0.247989	
	0.248647	
	0.245193	
	0.249304	
	0.259666	
	0.280059	
	0.339758	
	0.477412	
	0.580035	
	0.611283	
	0.619012	
	0.633978	
	0.652398	
	0.673449	
	0.699762	
	0.701736	
	0.687099	
	0.665226	
	0.655687	
	0.641543	
	0.625262	
	0.620492	
	0.630853	
	0.629373	
	0.626742	
	0.632662	
	0.627729	
	0.606513	
	0.595823	
	0.606513	
	0.622137	
	0.588751	
	0.404555	
	0.350119	
	0.377090	
	0.343047	
	0.259501	
	0.204571	
	0.177764	
	0.156549	
	0.138787	
	0.132866	
	0.148490	
	0.177600	
	0.204078	
	0.226938	
	0.267889	
	0.315582	
	0.441559	
	0.491884	
	0.501752	
	0.497640	
	0.532999	
	0.559313	
	0.580364	
	0.581515	
	0.571483	
	0.582666	
	0.605691	
	0.611118	
	0.602073	
	0.584969	
	0.586120	
	0.559313	
	0.546321	
	0.508988	
	0.453236	
	0.509152	
	0.545827	
	0.554873	
	0.569345	
	0.476754	
	0.322490	
	0.447480	
	0.585298	
	0.603060	
	0.583982	
	0.584311	
	0.651904	
	0.711275	
	0.738575	
	0.758146	
	0.752061	
	0.729694	0.124419
	0.693513	
	0.657332	
	0.624275	
	0.600757	
	0.581844	
	0.568029	
	0.552406	
	0.359000	
	0.324627	
	0.489582	
	0.466722	
	0.349132	
	0.281703	
	0.265751	
	0.262790	
	0.253909	
	0.255061	
	0.239108	
	0.232036	
	0.240095	
	0.238943	
	0.220359	
	0.195032	
	0.186152	
	0.199308	
	0.228089	
	0.245851	
	0.259172	
	0.250291	
	0.240095	
	0.235161	
	0.278578	
	0.554215	
	0.616052	
	0.632662	
	0.634472	
	0.664239	
	0.659634	
	0.629867	
	0.616381	
	0.622137	
	0.624933	
	0.642530	
	0.632005	
	0.622959	
	0.640063	
	0.638090	
	0.668679	
	0.680521	
	0.684139	
	0.678547	
	0.658976	
	0.633156	
	0.594179	
	0.527901	
	0.308017	
	0.232036	
	0.197828	
	0.171350	
	0.145530	
	0.142734	
	0.137142	
	0.122176	
	0.110006	
	0.111157	
	0.113295	
	0.115269	
	0.116914	
	0.118887	
	0.120532	
	0.122505	
	0.123985	
	0.126452	
	0.143556	
	0.146023	
	0.153424	
	0.162634	
	0.172172	
	0.192730	
	0.211150	
	0.212465	
	0.214932	
	0.222662	
	0.230227	
	0.262790	
	0.288611	
	0.306701	
	0.338113	
	0.503067	
	0.582173	
	0.606678	
	0.610296	
	0.606184	
	0.588587	
	0.585133	
	0.591547	
	0.574608	
	0.554873	
	0.424455	
	0.291078	0.176998
	0.293380	
	0.291735	
	0.255225	
	0.243219	
	0.245193	
	0.259666	
	0.283019	
	0.310648	
	0.334331	
	0.341238	
	0.315253	
	0.317556	
	0.364591	
	0.525105	
	0.500272	
	0.478069	
	0.380709	
	0.384656	
	0.415574	
	0.464419	
	0.453236	
	0.473300	
	0.558162	
	0.592863	
	0.618519	
	0.621972	
	0.613256	
	0.604704	
	0.607007	
	0.613256	
	0.629702	
	0.630524	
	0.632169	
	0.632005	
	0.617532	
	0.602402	
	0.596317	
	0.586613	
	0.574114	
	0.567700	
	0.554708	
	0.547801	
	0.523954	
	0.508166	
	0.468860	
	0.482674	
	0.499285	
	0.515731	
	0.515073	
	0.528065	
	0.541387	
	0.542045	
	0.553392	
	0.569181	
	0.602402	
	0.621644	
	0.636445	
	0.650260	
	0.647464	
	0.649766	
	0.648615	
	0.646313	
	0.652891	
	0.647957	
	0.634965	
	0.627235	
	0.631182	
	0.640557	
	0.639570	
	0.603060	
	0.498627	
	0.294696	
	0.282690	
	0.318214	
	0.507672	
	0.605362	
	0.609967	
	0.549774	
	0.534644	
	0.552735	
	0.588751	
	0.614901	
	0.627235	
	0.622466	
	0.590889	
	0.349132	
	0.456032	
	0.585791	
	0.633978	
	0.675258	
	0.692197	
	0.696638	
	0.679369	
	0.639570	
	0.614736	
	0.576746	
	0.367552	
	0.293873	
	0.257528	
	0.233352	0.172866
	0.244535	
	0.266244	
	0.337455	
	0.573785	
	0.632827	
	0.651904	
	0.668021	
	0.670324	
	0.677396	
	0.666377	
	0.654042	
	0.616545	
	0.558820	
	0.313609	
	0.239766	
	0.208518	
	0.190099	
	0.176942	
	0.141912	
	0.122341	
	0.119381	
	0.121190	
	0.145365	
	0.163620	
	0.196677	
	0.237299	
	0.274960	
	0.362947	
	0.558655	
	0.619834	
	0.637925	
	0.636281	
	0.641708	
	0.647299	
	0.640228	
	0.620821	
	0.595165	
	0.606184	
	0.590067	
	0.549939	
	0.514744	
	0.500600	
	0.388438	
	0.469517	
	0.546814	
	0.607993	
	0.631018	
	0.611940	
	0.607171	
	0.613256	
	0.595823	
	0.558984	
	0.368210	
	0.325121	
	0.249798	
	0.207531	
	0.179080	
	0.170857	
	0.173981	
	0.187961	
	0.197499	
	0.201611	
	0.202433	
	0.196677	
	0.190099	
	0.191579	
	0.193881	
	0.199473	
	0.200460	
	0.192566	
	0.195690	
	0.199966	
	0.204900	
	0.207860	
	0.210327	
	0.219866	
	0.230227	
	0.252758	
	0.266573	
	0.269204	
	0.276276	
	0.300616	
	0.358177	
	0.532341	
	0.570661	
	0.578226	
	0.588587	
	0.576252	
	0.565398	
	0.576088	
	0.586942	
	0.577075	
	0.575266	
	0.584640	
	0.580364	
	0.582009	
	0.581022	
	0.548623	
	0.526256	
	0.543196	0.158131
	0.539249	
	0.376268	
	0.313773	
	0.318542	
	0.317391	
	0.310813	
	0.308675	
	0.312786	
	0.290749	
	0.272987	
	0.268875	
	0.273645	
	0.281703	
	0.286966	
	0.314102	
	0.371828	
	0.467215	
	0.514415	
	0.520171	
	0.533657	
	0.557997	
	0.562273	
	0.569345	
	0.575595	
	0.590232	
	0.596152	
	0.606349	
	0.609473	
	0.617697	
	0.624110	
	0.622301	
	0.620163	
	0.612269	
	0.599277	
	0.593192	
	0.582337	
	0.579048	
	0.583489	
	0.589080	
	0.592370	
	0.598619	
	0.608651	
	0.611940	
	0.597797	
	0.571319	
	0.524612	
	0.339264	
	0.324792	
	0.325285	
	0.315253	
	0.364427	
	0.549610	
	0.575923	
	0.588258	
	0.595988	
	0.610296	
	0.608651	
	0.628222	
	0.642530	
	0.630853	
	0.613256	
	0.588916	
	0.576910	
	0.577075	
	0.565727	
	0.574772	
	0.593192	
	0.613749	
	0.633814	
	0.643188	
	0.670653	
	0.690717	
	0.707328	
	0.724596	
	0.741535	
	0.760120	
	0.782651	
	0.751896	
	0.718675	
	0.678711	
	0.603224	
	0.282526	
	0.207203	
	0.163456	
	0.142569	
	0.161482	
	0.210327	
	0.256870	
	0.282526	
	0.300123	
	0.492706	
	0.584147	
	0.551912	
	0.538755	
	0.286308	
	0.216412	
	0.187303	
	0.165758	
	0.156549	
	0.168061	0.187556
	0.200131	
	0.212794	
	0.209176	
	0.196019	
	0.197170	
	0.218221	
	0.259994	
	0.405213	
	0.581515	
	0.631182	
	0.649273	
	0.650918	
	0.666706	
	0.684139	
	0.680685	
	0.637925	
	0.453071	
	0.249304	
	0.232201	
	0.245029	
	0.237628	
	0.223649	
	0.249140	
	0.292229	
	0.333508	
	0.532670	
	0.588587	
	0.593192	
	0.597303	
	0.592534	
	0.545169	
	0.272987	
	0.197828	
	0.157206	
	0.151944	
	0.169541	
	0.185329	
	0.163127	
	0.143227	
	0.133689	
	0.141912	
	0.174146	
	0.209176	
	0.218386	
	0.239766	
	0.285650	
	0.428731	
	0.531848	
	0.554708	
	0.585298	
	0.595494	
	0.602895	
	0.579706	
	0.516060	
	0.327917	
	0.282361	
	0.279401	
	0.310155	
	0.339758	
	0.317556	
	0.327259	
	0.371663	
	0.530861	
	0.551912	
	0.577897	
	0.600099	
	0.604869	
	0.601415	
	0.576252	
	0.524776	
	0.450604	
	0.403404	
	0.326765	
	0.267395	
	0.243219	
	0.233516	
	0.215426	
	0.201940	
	0.208025	
	0.222662	
	0.235819	
	0.260981	
	0.315747	
	0.518198	
	0.561944	
	0.573128	
	0.576581	
	0.580528	
	0.565069	
	0.545498	
	0.566220	
	0.584475	
	0.585133	
	0.602731	
	0.610460	
	0.609638	
	0.612763	
	0.603717	
	0.595988	
	0.559642	0.150748
	0.513264	
	0.348803	
	0.401924	
	0.497147	
	0.511455	
	0.516882	
	0.495173	
	0.375610	
	0.339922	
	0.312951	
	0.297820	
	0.300781	
	0.343212	
	0.449453	
	0.563589	
	0.607993	
	0.653713	
	0.682330	
	0.698118	
	0.707492	
	0.709301	
	0.702394	
	0.691046	
	0.695322	
	0.699762	
	0.694664	
	0.710781	
	0.727556	
	0.729201	
	0.701736	
	0.650095	
	0.558820	
	0.285815	
	0.266902	
	0.230885	
	0.199473	
	0.205229	
	0.233187	
	0.253745	
	0.248811	
	0.311306	
	0.541716	
	0.597303	
	0.652891	
	0.675258	
	0.662101	
	0.639734	
	0.607007	
	0.550432	
	0.488101	
	0.553392	
	0.544018	
	0.449782	
	0.278743	
	0.246673	
	0.251114	
	0.253416	
	0.284335	
	0.280223	
	0.212794	
	0.203091	
	0.221017	
	0.244206	
	0.231872	
	0.231049	
	0.206380	
	0.195197	
	0.211807	
	0.265751	
	0.561944	
	0.600428	
	0.586449	
	0.605855	
	0.607993	
	0.573292	
	0.551748	
	0.534150	
	0.444190	
	0.371992	
	0.313280	
	0.296834	
	0.259008	
	0.226938	
	0.209012	
	0.203420	
	0.207367	
	0.207860	
	0.194046	
	0.182862	
	0.171515	
	0.177106	
	0.190921	
	0.201446	
	0.210327	
	0.197335	
	0.191908	
	0.214932	
	0.245029	
	0.276605	
	0.332357	0.141410
	0.544511	
	0.618354	
	0.669337	
	0.695815	
	0.700256	
	0.708150	
	0.702065	
	0.684139	
	0.677231	
	0.675258	
	0.669337	
	0.669666	
	0.666212	
	0.639241	
	0.591876	
	0.552077	
	0.324627	
	0.228418	
	0.192566	
	0.190263	
	0.197828	
	0.215919	
	0.227596	
	0.246509	
	0.252265	
	0.245686	
	0.236970	
	0.228254	
	0.218715	
	0.197335	
	0.185329	
	0.181876	
	0.193717	
	0.198322	
	0.203913	
	0.209505	
	0.221346	
	0.231378	
	0.247660	
	0.273809	
	0.302261	
	0.324792	
	0.380709	
	0.452907	
	0.517869	
	0.532835	
	0.559971	
	0.575101	
	0.586778	
	0.594508	
	0.594508	
	0.602402	
	0.600428	
	0.601086	
	0.594014	
	0.584147	
	0.583160	
	0.583489	
	0.575759	
	0.571648	
	0.559148	
	0.549281	
	0.530861	
	0.520994	
	0.492049	
	0.412450	
	0.460308	
	0.540564	
	0.574114	
	0.547636	
	0.424126	
	0.426100	
	0.559313	
	0.543525	
	0.517869	
	0.564082	
	0.561780	
	0.338278	
	0.284006	
	0.329397	
	0.542702	
	0.633485	
	0.671475	
	0.696967	
	0.707328	
	0.714071	
	0.718840	
	0.715057	
	0.720978	
	0.730845	
	0.731010	
	0.720320	
	0.695815	
	0.678547	
	0.677067	
	0.680027	
	0.651411	
	0.594343	
	0.357520	
	0.319036	0.155769
	0.386300	
	0.483332	
	0.278907	
	0.246838	
	0.234996	
	0.230556	
	0.197170	
	0.187632	
	0.221017	
	0.314266	
	0.597139	
	0.640721	
	0.665719	
	0.661443	
	0.636774	
	0.630524	
	0.601415	
	0.357355	
	0.232036	
	0.192566	
	0.175462	
	0.174804	
	0.179738	
	0.195690	
	0.185494	
	0.188125	
	0.205887	
	0.223320	
	0.226444	
	0.241739	
	0.229898	
	0.226609	
	0.229898	
	0.292887	
	0.561615	
	0.596810	
	0.568852	
	0.436296	
	0.305057	
	0.321338	
	0.407351	
	0.501258	
	0.448960	
	0.390576	
	0.545169	
	0.601579	
	0.626742	
	0.632991	
	0.643352	
	0.633978	
	0.611447	
	0.575923	
	0.524283	
	0.290091	
	0.232694	
	0.214932	
	0.208683	
	0.180231	
	0.173324	
	0.198322	
	0.215919	
	0.224471	
	0.219373	
	0.234996	
	0.247660	
	0.245686	
	0.210492	
	0.196348	
	0.191414	
	0.192566	
	0.190592	
	0.207860	
	0.212959	
	0.221182	
	0.245029	
	0.258514	
	0.256870	
	0.268875	
	0.276112	
	0.278907	
	0.291406	
	0.297820	
	0.289104	
	0.264599	
	0.259337	
	0.260652	
	0.262626	
	0.270355	
	0.285815	
	0.276934	
	0.276769	
	0.269698	
	0.291406	
	0.299136	
	0.315747	
	0.321667	
	0.318214	
	0.301932	
	0.309004	
	0.320845	0.155553
	0.375610	
	0.468202	
	0.535795	
	0.568194	
	0.586778	
	0.591876	
	0.600593	
	0.607664	
	0.609473	
	0.609967	
	0.606842	
	0.612927	
	0.614572	
	0.618683	
	0.620492	
	0.625262	
	0.617368	
	0.608322	
	0.602566	
	0.597632	
	0.589245	
	0.567536	
	0.548294	
	0.466557	
	0.397484	
	0.369196	
	0.336798	
	0.314595	
	0.296176	
	0.279236	
	0.288611	
	0.314924	
	0.421659	
	0.451427	
	0.469353	
	0.392056	
	0.285157	
	0.273316	
	0.298972	
	0.405213	
	0.543689	
	0.554873	
	0.570661	
	0.592205	
	0.613421	
	0.645490	
	0.677725	
	0.702558	
	0.716208	
	0.726898	
	0.707657	
	0.680192	
	0.656509	
	0.635787	
	0.618354	
	0.558162	
	0.286308	
	0.255061	
	0.249304	
	0.279236	
	0.487444	
	0.555201	
	0.578555	
	0.595988	
	0.632991	
	0.667035	
	0.680521	
	0.681343	
	0.653549	
	0.581351	
	0.445342	
	0.520336	
	0.579542	
	0.597797	
	0.410312	
	0.243055	
	0.210985	
	0.211479	
	0.245029	
	0.267889	
	0.347981	
	0.526092	
	0.560629	
	0.592534	
	0.615887	
	0.629209	
	0.647135	
	0.655522	
	0.650918	
	0.625426	
	0.501258	
	0.288940	
	0.297491	
	0.495338	
	0.565891	
	0.558655	
	0.541551	
	0.492377	
	0.527243	
	0.532670	0.160934
	0.526750	
	0.370183	
	0.268711	
	0.237463	
	0.206051	
	0.177271	
	0.171350	
	0.181382	
	0.206051	
	0.224471	
	0.221840	
	0.208189	
	0.213288	
	0.202927	
	0.186316	
	0.184671	
	0.179244	
	0.163292	
	0.174639	
	0.199802	
	0.240753	
	0.259337	
	0.303248	
	0.444848	
	0.485141	
	0.536124	
	0.590396	
	0.628880	
	0.665061	
	0.694335	
	0.716208	
	0.718511	
	0.704532	
	0.695651	
	0.678547	
	0.665226	
	0.657496	
	0.639405	
	0.578555	
	0.372979	
	0.269040	
	0.262297	
	0.253416	
	0.235819	
	0.238779	
	0.255883	
	0.268711	
	0.251278	
	0.209341	
	0.170034	
	0.145365	
	0.129413	
	0.124150	
	0.125137	
	0.130070	
	0.157206	
	0.177764	
	0.200953	
	0.222333	
	0.229898	
	0.240095	
	0.246344	
	0.265586	
	0.295353	
	0.323641	
	0.377584	
	0.492871	
	0.551748	
	0.569181	
	0.595659	
	0.584969	
	0.569674	
	0.551419	
	0.576910	
	0.603553	
	0.600922	
	0.576252	
	0.534315	
	0.494022	
	0.510961	
	0.501587	
	0.520007	
	0.497147	
	0.340251	
	0.313444	
	0.283512	
	0.269204	
	0.269698	
	0.268711	
	0.268382	
	0.272987	
	0.268217	
	0.277756	
	0.286473	
	0.302919	
	0.303412	
	0.335646	
	0.359822	
	0.469682	
	0.539907	0.165543
	0.588587	
	0.602073	
	0.562931	
	0.506192	
	0.492542	
	0.570003	
	0.581515	
	0.586613	
	0.601086	
	0.626413	
	0.636609	
	0.640557	
	0.646148	
	0.667528	
	0.684632	
	0.683316	
	0.678218	
	0.669173	
	0.652727	
	0.644339	
	0.637103	
	0.637925	
	0.658318	
	0.666706	
	0.671475	
	0.666870	
	0.676902	
	0.693184	
	0.707821	
	0.687757	
	0.652562	
	0.547801	
	0.308181	
	0.278250	
	0.251607	
	0.251936	
	0.285650	
	0.341402	
	0.570003	
	0.586120	
	0.607829	
	0.648780	
	0.686277	
	0.713742	
	0.710617	
	0.710288	
	0.700914	
	0.657003	
	0.600757	
	0.544676	
	0.370512	
	0.388603	
	0.470669	
	0.371005	
	0.300452	
	0.238779	
	0.198651	
	0.208354	
	0.223813	
	0.347323	
	0.644668	
	0.668679	
	0.677725	
	0.692197	
	0.694171	
	0.641050	
	0.547801	
	0.248647	
	0.177929	
	0.153424	
	0.174639	
	0.215754	
	0.232529	
	0.233516	
	0.257856	
	0.273974	
	0.236805	
	0.212959	
	0.242068	
	0.266737	
	0.264435	
	0.221840	
	0.221346	
	0.210492	
	0.190428	
	0.176942	
	0.181547	
	0.197006	
	0.207696	
	0.201940	
	0.214274	
	0.257692	
	0.296669	
	0.308017	
	0.289926	
	0.287624	
	0.295682	
	0.309826	
	0.267724	
	0.227267	0.139294
	0.196184	
	0.181711	
	0.171186	
	0.150464	
	0.146023	
	0.144214	
	0.152108	
	0.148983	
	0.153753	
	0.183027	
	0.214439	
	0.237792	
	0.280716	
	0.323312	
	0.335646	
	0.305550	
	0.263941	
	0.240753	
	0.245686	
	0.250785	
	0.255061	
	0.241081	
	0.244864	
	0.297491	
	0.528065	
	0.587107	
	0.599441	
	0.564905	
	0.461788	
	0.377255	
	0.330548	
	0.322983	
	0.361960	
	0.543689	
	0.586613	
	0.599770	
	0.588916	
	0.583818	
	0.559477	
	0.530697	
	0.407351	
	0.338442	
	0.340580	
	0.330384	
	0.344856	
	0.337291	
	0.294531	
	0.288282	
	0.295353	
	0.305221	
	0.334989	
	0.326108	
	0.325450	
	0.326930	
	0.329561	
	0.373637	
	0.396661	
	0.432678	
	0.509481	
	0.531519	
	0.560464	
	0.565069	
	0.566549	
	0.585298	
	0.599277	
	0.618683	
	0.619506	
	0.616545	
	0.611611	
	0.622959	
	0.630196	
	0.632662	
	0.634965	
	0.630360	
	0.620163	
	0.613914	
	0.603553	
	0.598619	
	0.586613	
	0.580364	
	0.584969	
	0.586613	
	0.584147	
	0.544511	
	0.524612	
	0.423633	
	0.356533	
	0.517375	
	0.618190	
	0.665719	
	0.683316	
	0.663252	
	0.654042	
	0.665226	
	0.672297	
	0.675093	
	0.674600	
	0.686770	
	0.691210	
	0.677725	0.212070
	0.672955	
	0.691539	
	0.668021	
	0.593850	
	0.315253	
	0.288282	
	0.271178	
	0.264928	
	0.278578	
	0.558820	
	0.576910	
	0.608158	
	0.642366	
	0.670982	
	0.695651	
	0.710617	
	0.735944	
	0.759955	
	0.762751	
	0.753706	
	0.716044	
	0.666212	
	0.584804	
	0.255061	
	0.190099	
	0.126617	
	0.106553	
	0.107046	
	0.117078	
	0.136978	
	0.142569	
	0.130564	
	0.133853	
	0.143392	
	0.149477	
	0.151779	
	0.155397	
	0.166581	
	0.183027	
	0.184507	
	0.190428	
	0.192730	
	0.193881	
	0.202433	
	0.220030	
	0.256541	
	0.307030	
	0.395839	
	0.515895	
	0.555695	
	0.556188	
	0.473793	
	0.497311	
	0.560793	
	0.585627	
	0.580693	
	0.512606	
	0.277263	
	0.238615	
	0.232694	
	0.212301	
	0.212136	
	0.227925	
	0.255225	
	0.377419	
	0.599277	
	0.638254	
	0.631676	
	0.585956	
	0.576417	
	0.536946	
	0.268382	
	0.209505	
	0.173159	
	0.166087	
	0.172172	
	0.183520	
	0.209834	
	0.231707	
	0.231378	
	0.210656	
	0.210163	
	0.219208	
	0.256047	
	0.306043	
	0.450111	
	0.583160	
	0.610789	
	0.624110	
	0.632991	
	0.636938	
	0.621972	
	0.618683	
	0.628058	
	0.635623	
	0.624768	
	0.615887	
	0.601908	
	0.584311	
	0.566056	0.134642
	0.571648	
	0.537604	
	0.439914	
	0.315747	
	0.280716	
	0.241410	
	0.211314	
	0.206216	
	0.223155	
	0.234667	
	0.247824	
	0.256541	
	0.274303	
	0.311635	
	0.320516	
	0.294696	
	0.282197	
	0.289926	
	0.329890	
	0.436790	
	0.550925	
	0.571319	
	0.583324	
	0.597139	
	0.591218	
	0.593027	
	0.598455	
	0.607829	
	0.600593	
	0.592205	
	0.578719	
	0.570332	
	0.572141	
	0.581680	
	0.600593	
	0.611940	
	0.619506	
	0.616710	
	0.607335	
	0.597797	
	0.589574	
	0.593685	
	0.608651	
	0.609967	
	0.610954	
	0.600593	
	0.597797	
	0.599770	
	0.618848	
	0.611447	
	0.605362	
	0.592370	
	0.599277	
	0.643517	
	0.689401	
	0.698282	
	0.703709	
	0.721142	
	0.723116	
	0.729201	
	0.736108	
	0.750087	
	0.751568	
	0.708479	
	0.604046	
	0.249962	
	0.172995	
	0.141747	
	0.125959	
	0.122012	
	0.118558	
	0.120367	
	0.138951	
	0.148161	
	0.158358	
	0.179409	
	0.199637	
	0.228582	
	0.272329	
	0.450769	
	0.569016	
	0.605855	
	0.643846	
	0.664239	
	0.670817	
	0.661772	
	0.644997	
	0.637925	
	0.640063	
	0.655029	
	0.637596	
	0.566220	
	0.299465	
	0.251607	
	0.223484	
	0.202598	
	0.194704	
	0.201446	
	0.237134	
	0.276112	0.170422
	0.409983	
	0.552899	
	0.575101	
	0.569510	
	0.559477	
	0.541222	
	0.557997	
	0.579542	
	0.564740	
	0.567207	
	0.525927	
	0.326437	
	0.310648	
	0.284006	
	0.275947	
	0.247824	
	0.222991	
	0.211643	
	0.208354	
	0.218057	
	0.226938	
	0.238121	
	0.264270	
	0.278250	
	0.292064	
	0.289762	
	0.269533	
	0.261968	
	0.285650	
	0.304070	
	0.342554	
	0.368703	
	0.376104	
	0.498627	
	0.617861	
	0.657167	
	0.647135	
	0.629209	
	0.613585	
	0.603553	
	0.619834	
	0.653384	
	0.660950	
	0.657496	
	0.673284	
	0.664732	
	0.617368	
	0.545334	
	0.320516	
	0.259666	
	0.241246	
	0.235161	
	0.210656	
	0.183685	
	0.162634	
	0.170857	
	0.211807	
	0.278743	
	0.321009	
	0.285979	
	0.226280	
	0.200624	
	0.193059	
	0.175133	
	0.167074	
	0.178093	
	0.191085	
	0.196019	
	0.201611	
	0.204078	
	0.203913	
	0.201446	
	0.202104	
	0.214110	
	0.219044	
	0.228254	
	0.251278	
	0.277098	
	0.308675	
	0.364591	
	0.476589	
	0.515073	
	0.543196	
	0.567536	
	0.557010	
	0.533164	
	0.534973	
	0.551912	
	0.584969	
	0.621808	
	0.623782	
	0.645326	
	0.674764	
	0.697131	
	0.712919	
	0.698776	
	0.682330	
	0.672791	
	0.654865	
	0.639405	0.179947
	0.606678	
	0.564576	
	0.561944	
	0.429225	
	0.476754	
	0.585791	
	0.633485	
	0.614407	
	0.565234	
	0.343212	
	0.260817	
	0.205722	
	0.174639	
	0.167239	
	0.190756	
	0.215097	
	0.245686	
	0.401102	
	0.570003	
	0.629867	
	0.664568	
	0.657825	
	0.641379	
	0.635458	
	0.628058	
	0.641050	
	0.624110	
	0.626577	
	0.627564	
	0.594508	
	0.505041	
	0.307524	
	0.272493	
	0.319036	
	0.580199	
	0.613749	
	0.642859	
	0.661279	
	0.657989	
	0.673449	
	0.696638	
	0.697624	
	0.677889	
	0.659470	
	0.652233	
	0.595330	
	0.304892	
	0.242068	
	0.217070	
	0.201775	
	0.220030	
	0.261146	
	0.275454	
	0.236477	
	0.219373	
	0.224635	
	0.296011	
	0.560135	
	0.623946	
	0.616545	
	0.584475	
	0.589738	
	0.630360	
	0.638254	
	0.603553	
	0.524118	
	0.288775	
	0.254238	
	0.262132	
	0.347488	
	0.546485	
	0.551254	
	0.520994	
	0.499449	
	0.562109	
	0.578061	
	0.571648	
	0.403733	
	0.213452	
	0.166087	
	0.152931	
	0.137307	
	0.142405	
	0.159673	
	0.182533	
	0.187138	
	0.189112	
	0.183685	
	0.176777	
	0.179738	
	0.193881	
	0.204078	
	0.221346	
	0.236148	
	0.265586	
	0.259008	
	0.251771	
	0.241410	
	0.229734	
	0.229569	0.179861
	0.260652	
	0.309497	
	0.365578	
	0.448631	
	0.522803	
	0.538591	
	0.561615	
	0.596317	
	0.608487	
	0.613914	
	0.608158	
	0.612927	
	0.623617	
	0.622630	
	0.590232	
	0.413601	
	0.306043	
	0.303412	
	0.303083	
	0.291571	
	0.275454	
	0.300287	
	0.455374	
	0.548130	
	0.548787	
	0.515566	
	0.510468	
	0.399786	
	0.355711	
	0.273480	
	0.241410	
	0.233516	
	0.239601	
	0.232858	
	0.216248	
	0.206051	
	0.221840	
	0.246509	
	0.282197	
	0.350448	
	0.470175	
	0.533657	
	0.558491	
	0.587436	
	0.603060	
	0.616710	
	0.622466	
	0.635458	
	0.648451	
	0.653384	
	0.657496	
	0.669995	
	0.684796	
	0.693842	
	0.708314	
	0.719827	
	0.722129	
	0.699762	
	0.678383	
	0.688086	
	0.705847	
	0.709301	
	0.686770	
	0.631840	
	0.594343	
	0.542867	
	0.422482	
	0.334331	
	0.268711	
	0.342389	
	0.607335	
	0.649602	
	0.667693	
	0.667199	
	0.643352	
	0.602073	
	0.526585	
	0.247989	
	0.182205	
	0.153095	
	0.147503	
	0.143392	
	0.144707	
	0.158029	
	0.159016	
	0.158193	
	0.165923	
	0.183191	
	0.243548	
	0.465406	
	0.611940	
	0.632991	
	0.651740	
	0.661608	
	0.654865	
	0.670653	
	0.680521	
	0.635952	
	0.600922	
	0.582502	0.156895
	0.478892	
	0.365249	
	0.396332	
	0.262132	
	0.218221	
	0.254732	
	0.432514	
	0.593850	
	0.616874	
	0.622466	
	0.564411	
	0.302261	
	0.292722	
	0.337455	
	0.391399	
	0.514580	
	0.515566	
	0.490568	
	0.326765	
	0.296998	
	0.307524	
	0.244700	
	0.202598	
	0.184671	
	0.180889	
	0.218057	
	0.254896	
	0.244042	
	0.221511	
	0.226444	
	0.277592	
	0.368045	
	0.547143	
	0.559477	
	0.544840	
	0.551090	
	0.521980	
	0.561780	
	0.561122	
	0.573128	
	0.579213	
	0.551419	
	0.503232	
	0.515237	
	0.539907	
	0.529217	
	0.400608	
	0.279236	
	0.225622	
	0.195197	
	0.180067	
	0.189934	
	0.184671	
	0.188618	
	0.198486	
	0.209341	
	0.214932	
	0.213781	
	0.217728	
	0.226609	
	0.235983	
	0.246838	
	0.264106	
	0.290913	
	0.316898	
	0.394852	
	0.524283	
	0.536782	
	0.556188	
	0.562438	
	0.572963	
	0.583653	
	0.585462	
	0.579377	
	0.578555	
	0.600922	
	0.609638	
	0.598455	
	0.561451	
	0.542702	
	0.553063	
	0.554708	
	0.541551	
	0.511948	
	0.468860	
	0.382682	
	0.376433	
	0.326765	
	0.298478	
	0.278907	
	0.265257	
	0.252923	
	0.249469	
	0.263284	
	0.284828	
	0.296669	
	0.338278	
	0.348474	
	0.378900	
	0.451920	0.176391
	0.490897	
	0.528723	
	0.546156	
	0.561286	
	0.569345	
	0.586613	
	0.601744	
	0.616381	
	0.622301	
	0.618519	
	0.620986	
	0.633814	
	0.638583	
	0.645655	
	0.646806	
	0.632991	
	0.635623	
	0.636116	
	0.603060	
	0.566220	
	0.559971	
	0.570990	
	0.580035	
	0.593356	
	0.611447	
	0.584969	
	0.563918	
	0.597797	
	0.631018	
	0.636774	
	0.652069	
	0.678218	
	0.709466	
	0.706670	
	0.691375	
	0.649109	
	0.616216	
	0.629702	
	0.645161	
	0.666212	
	0.650918	
	0.528394	
	0.230556	
	0.175626	
	0.178093	
	0.218386	
	0.368374	
	0.614901	
	0.651575	
	0.666048	
	0.670159	
	0.659141	
	0.632662	
	0.591712	
	0.523954	
	0.256705	
	0.214274	
	0.210163	
	0.188125	
	0.168883	
	0.193717	
	0.228911	
	0.268546	
	0.328081	
	0.484977	
	0.571154	
	0.618190	
	0.648451	
	0.635129	
	0.579706	
	0.555530	
	0.504219	
	0.314595	
	0.284170	
	0.273645	
	0.244535	
	0.232365	
	0.244042	
	0.289268	
	0.258350	
	0.200460	
	0.160002	
	0.139609	
	0.140596	
	0.181218	
	0.243877	
	0.564247	
	0.619177	
	0.579048	
	0.338607	
	0.390905	
	0.547472	
	0.552406	
	0.363276	
	0.286966	
	0.282854	
	0.270355	
	0.280223	
	0.271836	
	0.347488	0.136944
	0.573457	
	0.586942	
	0.587271	
	0.579542	
	0.542538	
	0.386300	
	0.326272	
	0.292887	
	0.299136	
	0.337455	
	0.445342	
	0.521487	
	0.525927	
	0.545169	
	0.484319	
	0.411134	
	0.496160	
	0.516553	
	0.535466	
	0.542045	
	0.503725	
	0.354888	
	0.315253	
	0.318707	
	0.312293	
	0.417054	
	0.544018	
	0.380051	
	0.294038	
	0.326437	
	0.471162	
	0.331864	
	0.286308	
	0.257034	
	0.270849	
	0.301932	
	0.303412	
	0.373637	
	0.547636	
	0.543196	
	0.459321	
	0.339264	
	0.346172	
	0.334660	
	0.309168	
	0.319365	
	0.397648	
	0.526750	
	0.581515	
	0.596152	
	0.574443	
	0.521487	
	0.467379	
	0.345185	
	0.306372	
	0.289104	
	0.261310	
	0.245193	
	0.270849	
	0.334166	
	0.363605	
	0.311306	
	0.297491	
	0.280716	
	0.304728	
	0.325121	
	0.376926	
	0.496653	
	0.561451	
	0.576746	
	0.588916	
	0.602731	
	0.618519	
	0.613421	
	0.595823	
	0.595001	
	0.618683	
	0.631347	
	0.613421	
	0.572305	
	0.538920	
	0.556188	
	0.534644	
	0.362947	
	0.270520	
	0.251771	
	0.276934	
	0.353244	
	0.523461	
	0.601908	
	0.611611	
	0.659305	
	0.691704	
	0.702558	
	0.717853	
	0.714893	
	0.676245	
	0.604211	
	0.532012	
	0.307195	0.158083
	0.243713	
	0.202269	
	0.189441	
	0.183191	
	0.184671	
	0.216577	
	0.274467	
	0.362289	
	0.372979	
	0.400608	
	0.523954	
	0.378735	
	0.329890	
	0.440572	
	0.556846	
	0.574937	
	0.592205	
	0.590232	
	0.605855	
	0.603224	
	0.595165	
	0.543196	
	0.294202	
	0.254403	
	0.254896	
	0.252594	
	0.253909	
	0.259337	
	0.239272	
	0.252100	
	0.239766	
	0.251771	
	0.272493	
	0.297985	
	0.363769	
	0.355053	
	0.314924	
	0.288775	
	0.280716	
	0.238450	
	0.206545	
	0.200953	
	0.204242	
	0.225293	
	0.288611	
	0.529874	
	0.568523	
	0.576910	
	0.458663	
	0.289926	
	0.337455	
	0.564905	
	0.586120	
	0.497311	
	0.305386	
	0.336798	
	0.566220	
	0.607007	
	0.588751	
	0.582173	
	0.594672	
	0.592698	
	0.595165	
	0.601579	
	0.621808	
	0.650753	
	0.678711	
	0.685783	
	0.673120	
	0.630031	
	0.505370	
	0.301603	
	0.321338	
	0.395839	
	0.560958	
	0.595494	
	0.607664	
	0.610789	
	0.610296	
	0.629209	
	0.634965	
	0.641543	
	0.608816	
	0.559477	
	0.371170	
	0.274138	
	0.292887	
	0.295847	
	0.282032	
	0.274467	
	0.245686	
	0.222991	
	0.227760	
	0.238121	
	0.250949	
	0.309826	
	0.569838	
	0.604375	
	0.596481	
	0.585133	0.122518
	0.599277	
	0.630853	
	0.640228	
	0.636609	
	0.610789	
	0.608651	
	0.611940	
	0.632005	
	0.648780	
	0.652727	
	0.571976	
	0.302096	
	0.218715	
	0.183849	
	0.196842	
	0.211643	
	0.201775	
	0.178586	
	0.175462	
	0.182533	
	0.183520	
	0.173488	
	0.174804	
	0.179244	
	0.198157	
	0.220359	
	0.263284	
	0.431856	
	0.557175	
	0.594508	
	0.632005	
	0.631018	
	0.641872	
	0.641379	
	0.610131	
	0.615559	
	0.643517	
	0.646971	
	0.641872	
	0.622466	
	0.601744	
	0.575101	
	0.573457	
	0.533822	
	0.457841	
	0.427415	
	0.534808	
	0.534315	
	0.347323	
	0.290091	
	0.238121	
	0.206545	
	0.182205	
	0.166581	
	0.167732	
	0.182040	
	0.186974	
	0.200624	
	0.193881	
	0.192401	
	0.209012	
	0.233352	
	0.282032	
	0.330384	
	0.429060	
	0.400608	
	0.373472	
	0.483003	
	0.585133	
	0.631840	
	0.669008	
	0.689730	
	0.695980	
	0.692691	
	0.697296	
	0.705025	
	0.708972	
	0.706999	
	0.703874	
	0.713742	
	0.717031	
	0.706341	
	0.695486	
	0.659470	
	0.611940	
	0.534150	
	0.308510	
	0.260652	
	0.251936	
	0.227102	
	0.225787	
	0.219208	
	0.229569	
	0.223978	
	0.195197	
	0.195855	
	0.178422	
	0.152108	
	0.140760	
	0.136156	0.124714
	0.132702	
	0.137636	
	0.166087	
	0.199637	
	0.235325	
	0.241575	
	0.226938	
	0.228089	
	0.251278	
	0.279730	
	0.259666	
	0.279730	
	0.566056	
	0.612598	
	0.617532	
	0.654865	
	0.672955	
	0.675587	
	0.660127	
	0.637925	
	0.599606	
	0.531026	
	0.325285	
	0.254238	
	0.240259	
	0.257692	
	0.288282	
	0.286473	
	0.231872	
	0.192566	
	0.198322	
	0.205887	
	0.201940	
	0.244700	
	0.307195	
	0.304399	
	0.289762	
	0.268382	
	0.240753	
	0.237792	
	0.255883	
	0.301274	
	0.299136	
	0.274960	
	0.258679	
	0.266244	
	0.281374	
	0.298478	
	0.364427	
	0.552077	
	0.598619	
	0.615723	
	0.611118	
	0.604046	
	0.625097	
	0.654207	
	0.664403	
	0.656674	
	0.647628	
	0.618354	
	0.591218	
	0.597303	
	0.620328	
	0.661772	
	0.699927	
	0.714728	
	0.707821	
	0.712426	
	0.719827	
	0.716373	
	0.693842	
	0.666048	
	0.614407	
	0.596810	
	0.599770	
	0.609145	
	0.533328	
	0.298643	
	0.276112	
	0.246015	
	0.237792	
	0.258843	
	0.299958	
	0.379228	
	0.347488	
	0.368539	
	0.473300	
	0.545827	
	0.586942	
	0.576746	
	0.580199	
	0.571812	
	0.620328	
	0.661114	
	0.685948	
	0.691704	
	0.686606	
	0.655687	
	0.607171	
	0.521487	0.171688
	0.282197	
	0.237957	
	0.198486	
	0.180067	
	0.193881	
	0.186645	
	0.156878	
	0.142898	
	0.152602	
	0.153588	
	0.135662	
	0.148161	
	0.177435	
	0.198322	
	0.231872	
	0.256376	
	0.265586	
	0.269698	
	0.239437	
	0.237792	
	0.221017	
	0.249798	
	0.292722	
	0.513757	
	0.608980	
	0.640885	
	0.657660	
	0.688086	
	0.721142	
	0.720156	
	0.722951	
	0.712261	
	0.706012	
	0.680027	
	0.647464	
	0.621972	
	0.616216	
	0.592370	
	0.536453	
	0.330713	
	0.354724	
	0.346830	
	0.302425	
	0.264764	
	0.233187	
	0.203420	
	0.182698	
	0.198322	
	0.245357	
	0.399293	
	0.586449	
	0.579871	
	0.576910	
	0.555037	
	0.324463	
	0.284664	
	0.294531	
	0.291735	
	0.261310	
	0.190756	
	0.135333	
	0.129084	
	0.130235	
	0.131880	
	0.133031	
	0.134675	
	0.136320	
	0.137965	
	0.139280	
	0.167568	
	0.302754	
	0.566385	
	0.630196	
	0.667857	
	0.648615	
	0.610954	
	0.601086	
	0.587436	
	0.590396	
	0.575430	
	0.546156	
	0.535960	
	0.598290	
	0.620986	
	0.602731	
	0.569510	
	0.310484	
	0.260981	
	0.271671	
	0.265751	
	0.238943	
	0.231214	
	0.236148	
	0.273151	
	0.346336	
	0.431691	
	0.430211	
	0.432349	
	0.293051	
	0.260323	0.167119
	0.236477	
	0.234174	
	0.260652	
	0.309990	
	0.552077	
	0.586449	
	0.605691	
	0.613914	
	0.610131	
	0.600428	
	0.611611	
	0.620657	
	0.629702	
	0.630031	
	0.632334	
	0.616710	
	0.581022	
	0.494680	
	0.514415	
	0.552077	
	0.567865	
	0.555530	
	0.562602	
	0.586613	
	0.605197	
	0.605691	
	0.600264	
	0.612434	
	0.656180	
	0.696967	
	0.692197	
	0.672133	
	0.660456	
	0.658483	
	0.640721	
	0.652562	
	0.672955	
	0.700585	
	0.714728	
	0.705190	
	0.687099	
	0.675422	
	0.632662	
	0.586120	
	0.428073	
	0.321338	
	0.420508	
	0.565727	
	0.616216	
	0.642201	
	0.657989	
	0.677231	
	0.663088	
	0.642859	
	0.634143	
	0.582337	
	0.527736	
	0.359822	
	0.297656	
	0.249633	
	0.209669	
	0.220030	
	0.286637	
	0.380544	
	0.323147	
	0.260488	
	0.239601	
	0.256870	
	0.282690	
	0.267231	
	0.272658	
	0.297163	
	0.343376	
	0.483825	
	0.590560	
	0.632662	
	0.624768	
	0.413436	
	0.223813	
	0.195361	
	0.176119	
	0.160002	
	0.138293	
	0.136484	
	0.146845	
	0.158193	
	0.177764	
	0.194210	
	0.231707	
	0.257034	
	0.272493	
	0.319858	
	0.529052	
	0.546485	
	0.601250	
	0.640885	
	0.658976	
	0.646806	
	0.655194	
	0.693513	0.192608
	0.695486	
	0.683152	
	0.683481	
	0.702229	
	0.701243	
	0.680192	
	0.537769	
	0.227102	
	0.188618	
	0.136156	
	0.120696	
	0.122176	
	0.123821	
	0.125466	
	0.127275	
	0.130893	
	0.244042	
	0.244042	
	0.269698	
	0.460965	
	0.600428	
	0.655522	
	0.665390	
	0.623782	
	0.591712	
	0.404555	
	0.296669	
	0.292229	
	0.293544	
	0.272000	
	0.230885	
	0.207367	
	0.213123	
	0.235490	
	0.296011	
	0.371663	
	0.274467	
	0.238779	
	0.218386	
	0.192237	
	0.181547	
	0.181382	
	0.204571	
	0.276112	
	0.333344	
	0.335482	
	0.293544	
	0.272822	
	0.241739	
	0.224142	
	0.209998	
	0.211150	
	0.215754	
	0.227760	
	0.237792	
	0.250127	
	0.266408	
	0.291242	
	0.299136	
	0.303577	
	0.292887	
	0.281703	
	0.286144	
	0.346007	
	0.574937	
	0.623124	
	0.641872	
	0.644010	
	0.638583	
	0.647299	
	0.661772	
	0.660127	
	0.663252	
	0.652891	
	0.638090	
	0.619177	
	0.621644	
	0.611776	
	0.618848	
	0.596974	
	0.574279	
	0.517047	
	0.323147	
	0.284170	
	0.260652	
	0.252758	
	0.241081	
	0.230720	
	0.229076	
	0.243219	
	0.260323	
	0.261146	
	0.250949	
	0.247002	
	0.244206	
	0.244864	
	0.260159	
	0.362618	
	0.525270	
	0.541387	0.147087
	0.542045	
	0.532670	
	0.546321	
	0.556353	
	0.581186	
	0.607171	
	0.617697	
	0.613092	
	0.630524	
	0.629538	
	0.615723	
	0.612927	
	0.623946	
	0.613092	
	0.606020	
	0.614078	
	0.619834	
	0.669666	
	0.734135	
	0.781006	
	0.799755	
	0.764067	
	0.711768	
	0.660950	
	0.626084	
	0.588094	
	0.544676	
	0.568523	
	0.592041	
	0.611940	
	0.632169	
	0.660950	
	0.679369	
	0.682987	
	0.684796	
	0.652562	
	0.579213	
	0.437941	
	0.358506	
	0.339593	
	0.320023	
	0.334331	
	0.279894	
	0.210327	
	0.219537	
	0.215097	
	0.206874	
	0.211150	
	0.199473	
	0.187632	
	0.177271	
	0.175462	
	0.194046	
	0.190921	
	0.201282	
	0.221675	
	0.254732	
	0.329890	
	0.599935	
	0.636281	
	0.649109	
	0.649109	
	0.637267	
	0.562273	
	0.272658	
	0.214603	
	0.165923	
	0.173159	
	0.218550	
	0.248976	
	0.262132	
	0.246838	
	0.216906	
	0.189112	
	0.199966	
	0.265093	
	0.384491	
	0.591054	
	0.572470	
	0.519678	
	0.277263	
	0.220524	
	0.205065	
	0.227102	
	0.468695	
	0.605691	
	0.610460	
	0.589245	
	0.552735	
	0.520665	
	0.555695	
	0.578390	
	0.602402	
	0.624604	
	0.625591	
	0.626906	
	0.636609	
	0.589903	
	0.338607	
	0.253745	0.169333
	0.206709	
	0.178751	
	0.155397	
	0.145201	
	0.159344	
	0.213617	
	0.289268	
	0.546321	
	0.480207	
	0.381695	
	0.353902	
	0.511784	
	0.477083	
	0.400444	
	0.406693	
	0.515566	
	0.589738	
	0.584475	
	0.525598	
	0.441230	
	0.568358	
	0.623617	
	0.660456	
	0.653878	
	0.629373	
	0.611283	
	0.594343	
	0.543525	
	0.548787	
	0.536946	
	0.317556	
	0.243055	
	0.234832	
	0.255554	
	0.313444	
	0.401266	
	0.372157	
	0.280881	
	0.234832	
	0.218221	
	0.184836	
	0.156384	
	0.146352	
	0.150299	
	0.172501	
	0.206709	
	0.261803	
	0.288940	
	0.275125	
	0.302425	
	0.327094	
	0.333508	
	0.329232	
	0.327423	
	0.325285	
	0.370019	
	0.436132	
	0.548787	
	0.557668	
	0.548294	
	0.541387	
	0.550268	
	0.574443	
	0.615723	
	0.636609	
	0.612598	
	0.595330	
	0.577568	
	0.574443	
	0.578555	
	0.591054	
	0.602073	
	0.610954	
	0.611611	
	0.617697	
	0.610789	
	0.576088	
	0.488266	
	0.332686	
	0.301932	
	0.321832	
	0.356204	
	0.382682	
	0.376268	
	0.309662	
	0.303248	
	0.292229	
	0.286802	
	0.284992	
	0.290420	
	0.288282	
	0.264599	
	0.255061	
	0.282854	
	0.524776	
	0.563096	
	0.540893	
	0.577075	
	0.601415	
	0.640721	0.180651
	0.659634	
	0.626248	
	0.449782	
	0.284992	
	0.314102	
	0.342718	
	0.572799	
	0.626084	
	0.685948	
	0.725583	
	0.742522	
	0.742851	
	0.745318	
	0.744825	
	0.736931	
	0.733477	
	0.723609	
	0.728214	
	0.737588	
	0.692526	
	0.609145	
	0.383340	
	0.267066	
	0.242891	
	0.188783	
	0.171515	
	0.166416	
	0.181053	
	0.199802	
	0.213452	
	0.260323	
	0.489417	
	0.601579	
	0.625755	
	0.641872	
	0.586120	
	0.358506	
	0.271013	
	0.213945	
	0.166416	
	0.142241	
	0.143063	
	0.166581	
	0.242397	
	0.553063	
	0.607993	
	0.619177	
	0.614736	
	0.580693	
	0.568687	
	0.583982	
	0.576088	
	0.384985	
	0.273151	
	0.229076	
	0.194539	
	0.198486	
	0.231049	
	0.272329	
	0.312128	
	0.314760	
	0.288775	
	0.283019	
	0.280388	
	0.279401	
	0.323476	
	0.342883	
	0.304728	
	0.258185	
	0.235325	
	0.222333	
	0.254567	
	0.310484	
	0.324134	
	0.496818	
	0.530861	
	0.442710	
	0.338607	
	0.242562	
	0.189770	
	0.170034	
	0.144379	
	0.137307	
	0.138622	
	0.139609	
	0.165265	
	0.307359	
	0.601415	
	0.652069	
	0.689072	
	0.718346	
	0.724432	
	0.710781	
	0.673284	
	0.619506	
	0.561122	
	0.358671	
	0.254403	
	0.215590	
	0.186152	0.155860
	0.171843	
	0.172008	
	0.182862	
	0.203584	
	0.225129	
	0.233516	
	0.240424	
	0.248482	
	0.255390	
	0.258350	
	0.259008	
	0.261310	
	0.271013	
	0.286144	
	0.292558	
	0.298314	
	0.292887	
	0.304399	
	0.323641	
	0.455209	
	0.543196	
	0.532012	
	0.298807	
	0.251771	
	0.254732	
	0.282032	
	0.298807	
	0.321503	
	0.529710	
	0.588094	
	0.605362	
	0.608322	
	0.626413	
	0.649273	
	0.665555	
	0.648944	
	0.638747	
	0.632662	
	0.619341	
	0.581844	
	0.358013	
	0.257856	
	0.251442	
	0.262626	
	0.276441	
	0.286637	
	0.309826	
	0.464090	
	0.550597	
	0.554050	
	0.484319	
	0.339264	
	0.318871	
	0.476425	
	0.580364	
	0.616710	
	0.643517	
	0.657989	
	0.674929	
	0.698282	
	0.706176	
	0.709630	
	0.718182	
	0.729859	
	0.714399	
	0.695486	
	0.687428	
	0.667035	
	0.634307	
	0.605691	
	0.583489	
	0.575101	
	0.572470	
	0.609802	
	0.627893	
	0.639241	
	0.636774	
	0.627400	
	0.605197	
	0.360480	
	0.255061	
	0.214768	
	0.180395	
	0.227267	
	0.335482	
	0.530039	
	0.350448	
	0.237628	
	0.209505	
	0.300287	
	0.591218	
	0.605526	
	0.585791	
	0.570496	
	0.371170	
	0.277921	
	0.310813	
	0.445177	
	0.503396	
	0.308510	0.141381
	0.290420	
	0.273974	
	0.249798	
	0.253252	
	0.223649	
	0.195361	
	0.189441	
	0.200624	
	0.247989	
	0.266902	
	0.283677	
	0.311142	
	0.335646	
	0.462939	
	0.537275	
	0.536288	
	0.504054	
	0.426922	
	0.336633	
	0.276441	
	0.262132	
	0.259008	
	0.252429	
	0.246673	
	0.242233	
	0.245522	
	0.255883	
	0.280059	
	0.281868	
	0.283019	
	0.283512	
	0.269862	
	0.255061	
	0.244042	
	0.231872	
	0.227431	
	0.227760	
	0.244042	
	0.257692	
	0.267724	
	0.280388	
	0.302096	
	0.302096	
	0.315747	
	0.350119	
	0.423139	
	0.536124	
	0.553557	
	0.571154	
	0.590560	
	0.611283	
	0.616381	
	0.619506	
	0.605033	
	0.585462	
	0.569181	
	0.547636	
	0.556188	
	0.567536	
	0.575759	
	0.584640	
	0.551583	
	0.404062	
	0.320023	
	0.298314	
	0.272000	
	0.245686	
	0.238615	
	0.242726	
	0.244535	
	0.253252	
	0.256212	
	0.231214	
	0.212136	
	0.199473	
	0.189934	
	0.188454	
	0.199144	
	0.216248	
	0.243548	
	0.297163	
	0.433336	
	0.595988	
	0.632169	
	0.628058	
	0.631840	
	0.618519	
	0.604704	
	0.602402	
	0.635294	
	0.653878	
	0.674107	
	0.694500	
	0.683152	
	0.680521	
	0.691868	
	0.684139	
	0.683316	
	0.712261	
	0.725418	0.194187
	0.719662	
	0.684796	
	0.622466	
	0.551748	
	0.311142	
	0.255390	
	0.232858	
	0.222991	
	0.215426	
	0.219044	
	0.203749	
	0.210985	
	0.248647	
	0.347981	
	0.559806	
	0.588751	
	0.619670	
	0.639405	
	0.634800	
	0.623288	
	0.619999	
	0.627071	
	0.634800	
	0.657332	
	0.655687	
	0.633320	
	0.642530	
	0.644010	
	0.603553	
	0.552570	
	0.532835	
	0.548952	
	0.283348	
	0.271836	
	0.364591	
	0.586942	
	0.673942	
	0.711768	
	0.703709	
	0.670324	
	0.607500	
	0.474287	
	0.358342	
	0.343047	
	0.258679	
	0.189934	
	0.141089	
	0.123656	
	0.124972	
	0.126781	
	0.128919	
	0.130070	
	0.132373	
	0.217235	
	0.294860	
	0.598126	
	0.667199	
	0.710123	
	0.718346	
	0.711604	
	0.688579	
	0.655687	
	0.565727	
	0.335317	
	0.267560	
	0.396661	
	0.595659	
	0.602566	
	0.598126	
	0.560464	
	0.445013	
	0.304563	
	0.303083	
	0.279401	
	0.281703	
	0.316898	
	0.263941	
	0.207696	
	0.187303	
	0.175462	
	0.169377	
	0.167403	
	0.171515	
	0.174804	
	0.177929	
	0.180395	
	0.178751	
	0.182533	
	0.192566	
	0.213288	
	0.237957	
	0.259337	
	0.277921	
	0.272987	
	0.263613	
	0.278743	
	0.299958	
	0.339593	
	0.303083	
	0.306043	0.139388
	0.310319	
	0.336469	
	0.376762	
	0.349954	
	0.402746	
	0.550761	
	0.608651	
	0.618848	
	0.620163	
	0.607664	
	0.618848	
	0.636609	
	0.630196	
	0.614572	
	0.602073	
	0.592863	
	0.582666	
	0.565562	
	0.528065	
	0.369854	
	0.291571	
	0.279401	
	0.292722	
	0.315418	
	0.294038	
	0.269698	
	0.258514	
	0.255225	
	0.245686	
	0.243713	
	0.247824	
	0.248482	
	0.254567	
	0.257528	
	0.258350	
	0.260488	
	0.267395	
	0.272329	
	0.277263	
	0.284170	
	0.297820	
	0.300123	
	0.320187	
	0.350612	
	0.380051	
	0.499943	
	0.548294	
	0.553886	
	0.559806	
	0.566714	
	0.576088	
	0.587271	
	0.582831	
	0.581680	
	0.584969	
	0.586120	
	0.585133	
	0.564247	
	0.556517	
	0.594672	
	0.617203	
	0.634143	
	0.644010	
	0.612763	
	0.566878	
	0.464748	
	0.499120	
	0.557339	
	0.572470	
	0.506521	
	0.329397	
	0.278085	
	0.266244	
	0.297491	
	0.509317	
	0.579377	
	0.574937	
	0.581186	
	0.579542	
	0.346336	
	0.233516	
	0.233187	
	0.242891	
	0.294860	
	0.566549	
	0.596317	
	0.589903	
	0.648286	
	0.674600	
	0.689895	
	0.699598	
	0.729859	
	0.750416	
	0.766698	
	0.785940	
	0.790216	
	0.766862	
	0.742029	
	0.732983	
	0.699927	0.114045
	0.638583	
	0.552570	
	0.278578	
	0.258350	
	0.317720	
	0.513264	
	0.314266	
	0.254074	
	0.267889	
	0.255061	
	0.234503	
	0.211314	
	0.194046	
	0.179738	
	0.144543	
	0.123328	
	0.123821	
	0.125301	
	0.127110	
	0.171515	
	0.217070	
	0.261968	
	0.304563	
	0.408174	
	0.574443	
	0.579871	
	0.510468	
	0.434816	
	0.542538	
	0.597303	
	0.619999	
	0.638419	
	0.663088	
	0.688908	
	0.702394	
	0.701736	
	0.691375	
	0.672626	
	0.604869	
	0.292887	
	0.192237	
	0.144379	
	0.124972	
	0.125630	
	0.139609	
	0.144543	
	0.142241	
	0.148326	
	0.155068	
	0.155397	
	0.163456	
	0.165923	
	0.175626	
	0.190428	
	0.206545	
	0.217564	
	0.222168	
	0.228254	
	0.244206	
	0.265093	
	0.292064	
	0.314595	
	0.353573	
	0.504054	
	0.547636	
	0.565891	
	0.591712	
	0.614078	
	0.620657	
	0.610954	
	0.600428	
	0.603224	
	0.602402	
	0.601579	
	0.606020	
	0.614243	
	0.618519	
	0.619506	
	0.606678	
	0.590232	
	0.572141	
	0.575430	
	0.584475	
	0.574937	
	0.522309	
	0.334989	
	0.292064	
	0.274467	
	0.273151	
	0.265257	
	0.259994	
	0.242891	
	0.233681	
	0.235490	
	0.238286	
	0.238286	
	0.245522	
	0.252758	
	0.254567	
	0.249140	0.150489
	0.253580	
	0.265422	
	0.283348	
	0.305879	
	0.364920	
	0.487115	
	0.508330	
	0.516224	
	0.525270	
	0.545334	
	0.558984	
	0.581680	
	0.571976	
	0.572963	
	0.575759	
	0.586778	
	0.595494	
	0.593850	
	0.574279	
	0.563589	
	0.538098	
	0.491226	
	0.370676	
	0.353737	
	0.346501	
	0.299136	
	0.276934	
	0.273645	
	0.285321	
	0.339264	
	0.379393	
	0.480701	
	0.574937	
	0.621972	
	0.648944	
	0.640392	
	0.638747	
	0.635129	
	0.646971	
	0.657660	
	0.661114	
	0.680849	
	0.705683	
	0.704367	
	0.695158	
	0.704367	
	0.695322	
	0.674435	
	0.648451	
	0.613256	
	0.441066	
	0.268217	
	0.338442	
	0.597303	
	0.623453	
	0.632827	
	0.647793	
	0.649766	
	0.633814	
	0.544676	
	0.216577	
	0.171186	
	0.160989	
	0.148983	
	0.171843	
	0.275289	
	0.623453	
	0.650589	
	0.678711	
	0.697296	
	0.697460	
	0.685619	
	0.685783	
	0.664568	
	0.620986	
	0.597139	
	0.648451	
	0.666377	
	0.675916	
	0.649109	
	0.599935	
	0.597632	
	0.599770	
	0.567043	
	0.261803	
	0.204078	
	0.196842	
	0.177106	
	0.196184	
	0.195361	
	0.163785	
	0.148326	
	0.131222	
	0.124314	
	0.124643	
	0.130235	
	0.170363	
	0.192401	
	0.184343	
	0.176942	0.167759
	0.175791	
	0.202598	
	0.235161	
	0.256212	
	0.296834	
	0.287459	
	0.239108	
	0.185494	
	0.158851	
	0.148490	
	0.145365	
	0.146023	
	0.159016	
	0.198322	
	0.270849	
	0.383998	
	0.544347	
	0.470998	
	0.271671	
	0.250456	
	0.287130	
	0.337949	
	0.540071	
	0.589409	
	0.601250	
	0.615723	
	0.622795	
	0.623288	
	0.613256	
	0.596974	
	0.596317	
	0.588094	
	0.561286	
	0.574114	
	0.584804	
	0.588751	
	0.604869	
	0.621644	
	0.631676	
	0.635458	
	0.619177	
	0.588258	
	0.550597	
	0.533986	
	0.479549	
	0.337127	
	0.322818	
	0.335482	
	0.378077	
	0.472149	
	0.431034	
	0.371005	
	0.493858	
	0.541058	
	0.572470	
	0.577733	
	0.576910	
	0.562931	
	0.550597	
	0.560793	
	0.577075	
	0.584475	
	0.584147	
	0.587436	
	0.587107	
	0.585956	
	0.585133	
	0.595823	
	0.615065	
	0.629867	
	0.621808	
	0.610296	
	0.601908	
	0.589245	
	0.567207	
	0.562438	
	0.551748	
	0.531684	
	0.518856	
	0.543689	
	0.525598	
	0.387451	
	0.299301	
	0.265586	
	0.257199	
	0.245193	
	0.246180	
	0.252923	
	0.265093	
	0.276605	
	0.288282	
	0.266902	
	0.261803	
	0.263284	
	0.280716	
	0.307688	
	0.429389	
	0.532341	
	0.562931	
	0.584640	0.169278
	0.607829	
	0.628058	
	0.657496	
	0.657660	
	0.643846	
	0.655194	
	0.661608	
	0.661443	
	0.683481	
	0.715880	
	0.722294	
	0.723609	
	0.735286	
	0.742029	
	0.758804	
	0.773770	
	0.793670	
	0.785940	
	0.751403	
	0.711275	
	0.665719	
	0.614572	
	0.297163	
	0.219373	
	0.187138	
	0.155891	
	0.112802	
	0.110500	
	0.112473	
	0.114282	
	0.264764	
	0.516224	
	0.306537	
	0.232365	
	0.235819	
	0.209012	
	0.177929	
	0.155397	
	0.150464	
	0.181218	
	0.267231	
	0.378735	
	0.541716	
	0.522309	
	0.386465	
	0.286966	
	0.272000	
	0.297820	
	0.396003	
	0.582831	
	0.576581	
	0.375446	
	0.251771	
	0.205722	
	0.182533	
	0.171186	
	0.169541	
	0.169048	
	0.160002	
	0.147503	
	0.144543	
	0.176284	
	0.231707	
	0.288117	
	0.306537	
	0.268711	
	0.239272	
	0.211807	
	0.190921	
	0.182040	
	0.166745	
	0.155397	
	0.149477	
	0.148326	
	0.156055	
	0.180889	
	0.199966	
	0.211972	
	0.229734	
	0.262955	
	0.345678	
	0.545498	
	0.601250	
	0.572470	
	0.318707	
	0.259337	
	0.246838	
	0.232858	
	0.227925	
	0.230720	
	0.233516	
	0.249140	
	0.266737	
	0.273809	
	0.291900	
	0.347816	
	0.564411	
	0.625755	
	0.657660	
	0.669502	0.187232
	0.663088	
	0.654042	
	0.639076	
	0.618025	
	0.591383	
	0.559477	
	0.493529	
	0.429718	
	0.456854	
	0.382189	
	0.338442	
	0.298149	
	0.321338	
	0.322818	
	0.311635	
	0.315911	
	0.323476	
	0.328081	
	0.393537	
	0.512277	
	0.553228	
	0.580528	
	0.597303	
	0.605691	
	0.612763	
	0.619341	
	0.626248	
	0.636609	
	0.641872	
	0.644833	
	0.646806	
	0.655358	
	0.655029	
	0.652727	
	0.652562	
	0.650589	
	0.645490	
	0.642530	
	0.635294	
	0.627400	
	0.613749	
	0.603882	
	0.591054	
	0.571648	
	0.548952	
	0.451427	
	0.334002	
	0.310813	
	0.326272	
	0.313609	
	0.303577	
	0.285979	
	0.267231	
	0.272000	
	0.369854	
	0.419521	
	0.280223	
	0.255225	
	0.263613	
	0.307853	
	0.496489	
	0.549116	
	0.594179	
	0.642859	
	0.648780	
	0.660456	
	0.662430	
	0.631018	
	0.560135	
	0.360151	
	0.263448	
	0.258514	
	0.268875	
	0.297985	
	0.448631	
	0.530368	
	0.560300	
	0.652398	
	0.706012	
	0.731174	
	0.731503	
	0.729036	
	0.717853	
	0.715386	
	0.720320	
	0.728214	
	0.725418	
	0.737753	
	0.745154	
	0.738904	
	0.721471	
	0.703381	
	0.706341	
	0.697624	
	0.686277	
	0.604540	
	0.198651	
	0.115433	
	0.108197	
	0.109842	0.177088
	0.111322	
	0.113131	
	0.135004	
	0.173817	
	0.198322	
	0.226280	
	0.257856	
	0.280059	
	0.279894	
	0.197335	
	0.148490	
	0.122505	
	0.122670	
	0.124643	
	0.169541	
	0.249962	
	0.478069	
	0.606513	
	0.635623	
	0.653056	
	0.660292	
	0.661936	
	0.626413	
	0.590232	
	0.562931	
	0.409654	
	0.322325	
	0.276276	
	0.222662	
	0.193717	
	0.195197	
	0.188125	
	0.168883	
	0.152273	
	0.149312	
	0.166745	
	0.182369	
	0.187796	
	0.197664	
	0.168554	
	0.146023	
	0.140267	
	0.141583	
	0.143556	
	0.218221	
	0.274796	
	0.386136	
	0.622301	
	0.652398	
	0.638090	
	0.600922	
	0.566878	
	0.560300	
	0.548787	
	0.356533	
	0.276441	
	0.264599	
	0.281045	
	0.301110	
	0.292558	
	0.260652	
	0.251278	
	0.239437	
	0.236312	
	0.238943	
	0.223320	
	0.201940	
	0.185000	
	0.187796	
	0.206380	
	0.223649	
	0.217235	
	0.237134	
	0.262297	
	0.309826	
	0.361631	
	0.406529	
	0.511619	
	0.542538	
	0.494515	
	0.464419	
	0.429225	
	0.394852	
	0.345021	
	0.326765	
	0.360644	
	0.396497	
	0.508330	
	0.555530	
	0.574608	
	0.582666	
	0.603717	
	0.608158	
	0.617368	
	0.614901	
	0.614078	
	0.609638	
	0.605691	
	0.594836	
	0.582173	0.144786
	0.575595	
	0.574443	
	0.555201	
	0.514251	
	0.506686	
	0.459979	
	0.432843	
	0.433007	
	0.398141	
	0.333837	
	0.302261	
	0.276769	
	0.259666	
	0.248482	
	0.245851	
	0.251607	
	0.267395	
	0.285157	
	0.306372	
	0.331699	
	0.468860	
	0.556024	
	0.571812	
	0.575595	
	0.577404	
	0.591712	
	0.607993	
	0.620163	
	0.627235	
	0.630853	
	0.638583	
	0.645326	
	0.644504	
	0.646477	
	0.646477	
	0.657003	
	0.663417	
	0.658318	
	0.647628	
	0.642201	
	0.645984	
	0.659963	
	0.675751	
	0.656674	
	0.605526	
	0.455209	
	0.338607	
	0.296340	
	0.356204	
	0.599277	
	0.656509	
	0.671640	
	0.668679	
	0.681343	
	0.700420	
	0.710123	
	0.720978	
	0.701571	
	0.659470	
	0.633485	
	0.613914	
	0.612598	
	0.644339	
	0.670817	
	0.657660	
	0.615394	
	0.607500	
	0.591383	
	0.594672	
	0.586285	
	0.478892	
	0.337455	
	0.575430	
	0.587929	
	0.325779	
	0.232365	
	0.200460	
	0.249962	
	0.558162	
	0.626906	
	0.610789	
	0.561286	
	0.448960	
	0.546321	
	0.477905	
	0.239272	
	0.197664	
	0.166745	
	0.157535	
	0.187138	
	0.225458	
	0.240917	
	0.240917	
	0.221675	
	0.224471	
	0.233187	
	0.207038	
	0.221511	
	0.270520	
	0.340416	0.174282
	0.408174	
	0.522145	
	0.526256	
	0.479056	
	0.273974	
	0.215754	
	0.187138	
	0.196842	
	0.192730	
	0.185494	
	0.186152	
	0.195526	
	0.202598	
	0.212301	
	0.218057	
	0.239108	
	0.229405	
	0.210492	
	0.199473	
	0.206874	
	0.215590	
	0.218550	
	0.263448	
	0.324299	
	0.543689	
	0.603717	
	0.612763	
	0.604046	
	0.604046	
	0.604046	
	0.613914	
	0.595494	
	0.596810	
	0.590396	
	0.567043	
	0.568523	
	0.558984	
	0.518033	
	0.473793	
	0.490239	
	0.443697	
	0.326437	
	0.255554	
	0.222497	
	0.222497	
	0.238450	
	0.224964	
	0.204078	
	0.198322	
	0.205722	
	0.208683	
	0.221675	
	0.244535	
	0.262461	
	0.254896	
	0.261310	
	0.306043	
	0.484648	
	0.557668	
	0.588587	
	0.585627	
	0.569674	
	0.535631	
	0.488595	
	0.384820	
	0.327094	
	0.322325	
	0.303577	
	0.284828	
	0.285650	
	0.291900	
	0.282197	
	0.276605	
	0.264599	
	0.270849	
	0.283512	
	0.289268	
	0.291406	
	0.296176	
	0.299958	
	0.311800	
	0.313444	
	0.344856	
	0.391070	
	0.482345	
	0.557833	
	0.578390	
	0.589245	
	0.591712	
	0.595988	
	0.599112	
	0.608158	
	0.612763	
	0.619999	
	0.626577	
	0.630524	
	0.634965	
	0.635129	
	0.624110	
	0.616545	0.203551
	0.609309	
	0.539578	
	0.310977	
	0.280388	
	0.271836	
	0.319036	
	0.568029	
	0.607829	
	0.631347	
	0.612598	
	0.569016	
	0.543854	
	0.601744	
	0.647299	
	0.658812	
	0.644997	
	0.646971	
	0.669173	
	0.684632	
	0.695158	
	0.711604	
	0.713577	
	0.702394	
	0.678218	
	0.657496	
	0.644339	
	0.643188	
	0.652562	
	0.595988	
	0.370183	
	0.597468	
	0.655358	
	0.637432	
	0.606020	
	0.593027	
	0.623617	
	0.668186	
	0.683152	
	0.672791	
	0.646642	
	0.601415	
	0.278907	
	0.259008	
	0.305057	
	0.533493	
	0.592863	
	0.626084	
	0.618848	
	0.546485	
	0.224964	
	0.186480	
	0.197335	
	0.233352	
	0.300945	
	0.394194	
	0.391399	
	0.298643	
	0.276276	
	0.325450	
	0.450111	
	0.496160	
	0.299136	
	0.257692	
	0.281045	
	0.304728	
	0.343212	
	0.546649	
	0.614901	
	0.666212	
	0.689401	
	0.715386	
	0.719004	
	0.687757	
	0.677067	
	0.639899	
	0.520994	
	0.256212	
	0.244042	
	0.230556	
	0.169705	
	0.119545	
	0.121025	
	0.122999	
	0.124972	
	0.126946	
	0.129084	
	0.132044	
	0.168554	
	0.188618	
	0.260652	
	0.556517	
	0.620492	
	0.639241	
	0.605362	
	0.395346	
	0.267560	
	0.228254	
	0.179080	
	0.142734	
	0.136813	0.156724
	0.138129	
	0.139445	
	0.141089	
	0.142405	
	0.147503	
	0.206051	
	0.239108	
	0.282690	
	0.312622	
	0.340251	
	0.368374	
	0.503067	
	0.499285	
	0.420179	
	0.352750	
	0.330548	
	0.320187	
	0.332193	
	0.310484	
	0.315747	
	0.295353	
	0.291900	
	0.298972	
	0.283512	
	0.277427	
	0.265586	
	0.257856	
	0.254567	
	0.256047	
	0.252265	
	0.252594	
	0.248976	
	0.246509	
	0.232036	
	0.229569	
	0.226116	
	0.241246	
	0.271671	
	0.309662	
	0.315747	
	0.323970	
	0.318707	
	0.311635	
	0.337291	
	0.395510	
	0.524776	
	0.547307	
	0.567372	
	0.582502	
	0.590396	
	0.593356	
	0.597139	
	0.597468	
	0.602237	
	0.605033	
	0.608158	
	0.595330	
	0.582009	
	0.577404	
	0.589574	
	0.584147	
	0.584475	
	0.580693	
	0.564905	
	0.543689	
	0.386629	
	0.324463	
	0.291242	
	0.278743	
	0.266079	
	0.258021	
	0.261475	
	0.292393	
	0.321338	
	0.324627	
	0.323147	
	0.379557	
	0.561944	
	0.600264	
	0.565234	
	0.519842	
	0.317720	
	0.288940	
	0.310648	
	0.451920	
	0.608816	
	0.668186	
	0.714235	
	0.734464	
	0.726405	
	0.695980	
	0.667528	
	0.651082	
	0.645819	
	0.646477	
	0.652727	
	0.669173	
	0.682330	
	0.698447	
	0.701736	0.142314
	0.705025	
	0.693513	
	0.667035	
	0.632991	
	0.581515	
	0.413601	
	0.280388	
	0.240588	
	0.220030	
	0.204242	
	0.192566	
	0.187632	
	0.200624	
	0.213123	
	0.206051	
	0.193388	
	0.200624	
	0.223649	
	0.260488	
	0.295682	
	0.308675	
	0.384327	
	0.562931	
	0.617368	
	0.657332	
	0.688744	
	0.710781	
	0.742193	
	0.763409	
	0.764889	
	0.766205	
	0.763738	
	0.743180	
	0.719498	
	0.687263	
	0.643188	
	0.576746	
	0.253087	
	0.177435	
	0.140760	
	0.128097	
	0.124808	
	0.134346	
	0.167239	
	0.204571	
	0.276276	
	0.561780	
	0.498791	
	0.309497	
	0.254074	
	0.226280	
	0.250785	
	0.285815	
	0.286144	
	0.269862	
	0.290091	
	0.544018	
	0.603224	
	0.630689	
	0.649273	
	0.669995	
	0.672626	
	0.663252	
	0.652562	
	0.625262	
	0.609473	
	0.595494	
	0.581351	
	0.559148	
	0.600428	
	0.604540	
	0.596810	
	0.557339	
	0.303577	
	0.257199	
	0.237957	
	0.219208	
	0.215590	
	0.210656	
	0.209176	
	0.194704	
	0.172995	
	0.147832	
	0.132702	
	0.133689	
	0.146681	
	0.158687	
	0.167074	
	0.175462	
	0.182040	
	0.197499	
	0.203091	
	0.207203	
	0.186974	
	0.176942	
	0.184343	
	0.189112	
	0.204736	
	0.236148	
	0.255061	0.161268
	0.303083	
	0.359329	
	0.479878	
	0.566714	
	0.583489	
	0.584640	
	0.572141	
	0.524447	
	0.494351	
	0.547307	
	0.539742	
	0.379557	
	0.341074	
	0.371663	
	0.424949	
	0.377584	
	0.394523	
	0.498298	
	0.503725	
	0.475109	
	0.382024	
	0.340416	
	0.315911	
	0.296011	
	0.292393	
	0.278907	
	0.266244	
	0.260159	
	0.261639	
	0.260652	
	0.264106	
	0.263613	
	0.255883	
	0.254567	
	0.249798	
	0.246015	
	0.245851	
	0.236312	
	0.249140	
	0.256705	
	0.270849	
	0.281868	
	0.288940	
	0.311142	
	0.366894	
	0.443862	
	0.537275	
	0.572963	
	0.587107	
	0.607664	
	0.627729	
	0.640885	
	0.635787	
	0.610296	
	0.594672	
	0.540564	
	0.532670	
	0.525434	
	0.570825	
	0.552570	
	0.515566	
	0.443697	
	0.339100	
	0.324956	
	0.569345	
	0.624933	
	0.626084	
	0.637761	
	0.656345	
	0.669337	
	0.675422	
	0.686770	
	0.683974	
	0.665555	
	0.632827	
	0.622301	
	0.654865	
	0.665390	
	0.601744	
	0.264599	
	0.209012	
	0.187796	
	0.208847	
	0.257692	
	0.346336	
	0.549116	
	0.625591	
	0.690224	
	0.733641	
	0.751074	
	0.733477	
	0.660456	
	0.596152	
	0.463761	
	0.289268	
	0.270027	
	0.219702	
	0.211972	
	0.226116	
	0.247824	0.193619
	0.264928	
	0.300123	
	0.512442	
	0.594836	
	0.620328	
	0.608158	
	0.604540	
	0.600922	
	0.591218	
	0.509317	
	0.424126	
	0.272493	
	0.209834	
	0.177435	
	0.149312	
	0.151121	
	0.177271	
	0.181053	
	0.178093	
	0.187138	
	0.237299	
	0.386794	
	0.615723	
	0.648451	
	0.636116	
	0.593850	
	0.587765	
	0.618354	
	0.638912	
	0.674271	
	0.694171	
	0.653220	
	0.551254	
	0.316733	
	0.309333	
	0.322654	
	0.352421	
	0.454716	
	0.585462	
	0.645326	
	0.667857	
	0.664239	
	0.654700	
	0.671969	
	0.663746	
	0.668186	
	0.629538	
	0.346172	
	0.230063	
	0.191908	
	0.175791	
	0.166910	
	0.175133	
	0.210327	
	0.240917	
	0.224471	
	0.226773	
	0.273151	
	0.337949	
	0.359000	
	0.523461	
	0.591054	
	0.645819	
	0.673449	
	0.690224	
	0.695158	
	0.685290	
	0.677725	
	0.681672	
	0.690059	
	0.671969	
	0.597632	
	0.289926	
	0.204736	
	0.175955	
	0.162140	
	0.162963	
	0.191908	
	0.223978	
	0.225293	
	0.213288	
	0.202433	
	0.209505	
	0.258185	
	0.524776	
	0.520007	
	0.371170	
	0.342389	
	0.285486	
	0.238943	
	0.225622	
	0.188290	
	0.162963	
	0.158358	
	0.170034	
	0.196184	
	0.222168	
	0.238121	
	0.246838	
	0.254403	0.115157
	0.269862	
	0.289268	
	0.341402	
	0.480207	
	0.512113	
	0.543525	
	0.575101	
	0.607007	
	0.618683	
	0.619012	
	0.604211	
	0.602731	
	0.603882	
	0.611283	
	0.621150	
	0.634965	
	0.639899	
	0.633156	
	0.615230	
	0.599441	
	0.591712	
	0.595823	
	0.597961	
	0.591218	
	0.586449	
	0.585956	
	0.578884	
	0.531355	
	0.362618	
	0.230885	
	0.183685	
	0.173817	
	0.176777	
	0.186316	
	0.190756	
	0.191579	
	0.196842	
	0.202927	
	0.205558	
	0.207696	
	0.224964	
	0.256541	
	0.266573	
	0.244206	
	0.243548	
	0.263448	
	0.307688	
	0.542867	
	0.594508	
	0.606678	
	0.614736	
	0.637596	
	0.640721	
	0.617368	
	0.612927	
	0.606842	
	0.595659	
	0.519678	
	0.396332	
	0.549116	
	0.578226	
	0.594836	
	0.607171	
	0.613421	
	0.612598	
	0.618519	
	0.630853	
	0.640392	
	0.663417	
	0.645490	
	0.579706	
	0.400937	
	0.267395	
	0.246015	
	0.248811	
	0.218550	
	0.193881	
	0.184671	
	0.204242	
	0.226116	
	0.222826	
	0.278743	
	0.418535	
	0.458170	
	0.531519	
	0.597139	
	0.645819	
	0.654371	
	0.645490	
	0.641050	
	0.616381	
	0.563096	
	0.531684	
	0.574937	
	0.539084	
	0.287295	
	0.262461	
	0.238121	
	0.220688	
	0.247660	0.196851
	0.339758	
	0.573292	
	0.661608	
	0.682001	
	0.694829	
	0.689072	
	0.681672	
	0.694664	
	0.714564	
	0.721636	
	0.715222	
	0.697460	
	0.679698	
	0.644668	
	0.605033	
	0.610625	
	0.598948	
	0.588916	
	0.550268	
	0.319036	
	0.296834	
	0.423633	
	0.607171	
	0.622795	
	0.593356	
	0.449947	
	0.259666	
	0.220195	
	0.203913	
	0.177271	
	0.155891	
	0.150628	
	0.176613	
	0.200131	
	0.244864	
	0.540400	
	0.666048	
	0.698940	
	0.721800	
	0.739069	
	0.730845	
	0.702394	
	0.670324	
	0.638747	
	0.601250	
	0.483168	
	0.267889	
	0.228911	
	0.200131	
	0.179902	
	0.159344	
	0.146845	
	0.141089	
	0.154904	
	0.177271	
	0.202433	
	0.197006	
	0.220853	
	0.318542	
	0.594836	
	0.597797	
	0.581022	
	0.595659	
	0.606678	
	0.591712	
	0.576088	
	0.576910	
	0.559806	
	0.574443	
	0.613421	
	0.648944	
	0.653220	
	0.633485	
	0.602566	
	0.582173	
	0.312293	
	0.204078	
	0.173981	
	0.163292	
	0.173817	
	0.221511	
	0.282690	
	0.514415	
	0.565234	
	0.491555	
	0.277427	
	0.243055	
	0.223320	
	0.215590	
	0.208847	
	0.200624	
	0.179409	
	0.159016	
	0.154411	
	0.148819	
	0.149641	
	0.156384	
	0.184507	
	0.201611	
	0.207696	0.152891
	0.211314	
	0.226609	
	0.275618	
	0.345514	
	0.476260	
	0.310648	
	0.304728	
	0.375610	
	0.510139	
	0.452413	
	0.437776	
	0.401595	
	0.526092	
	0.545169	
	0.554050	
	0.550597	
	0.567865	
	0.569510	
	0.540893	
	0.523461	
	0.509810	
	0.451920	
	0.364098	
	0.345185	
	0.323970	
	0.299465	
	0.287788	
	0.280716	
	0.289104	
	0.307195	
	0.298478	
	0.280388	
	0.257528	
	0.255390	
	0.257199	
	0.257034	
	0.247002	
	0.247495	
	0.264106	
	0.287788	
	0.320187	
	0.393208	
	0.417054	
	0.403898	
	0.533328	
	0.601086	
	0.621479	
	0.631511	
	0.645326	
	0.646971	
	0.643517	
	0.632662	
	0.626742	
	0.634143	
	0.638747	
	0.641214	
	0.661443	
	0.692526	
	0.697953	
	0.689730	
	0.673778	
	0.660950	
	0.662265	
	0.661443	
	0.654700	
	0.636609	
	0.567865	
	0.253909	
	0.197335	
	0.163456	
	0.159838	
	0.160496	
	0.166416	
	0.172008	
	0.186974	
	0.221017	
	0.278743	
	0.327259	
	0.518198	
	0.558984	
	0.580035	
	0.571812	
	0.577568	
	0.535631	
	0.497311	
	0.582831	
	0.603882	
	0.630031	
	0.662594	
	0.704532	
	0.735615	
	0.760284	
	0.759462	
	0.699269	
	0.626906	
	0.531684	
	0.260159	
	0.222826	
	0.184836	
	0.181382	0.177722
	0.214439	
	0.272493	
	0.597139	
	0.639076	
	0.659305	
	0.659141	
	0.623453	
	0.357191	
	0.196513	
	0.147997	
	0.141254	
	0.143392	
	0.144707	
	0.175791	
	0.250785	
	0.312951	
	0.371828	
	0.527079	
	0.609473	
	0.641379	
	0.648615	
	0.644997	
	0.643023	
	0.647299	
	0.641543	
	0.637761	
	0.649766	
	0.671475	
	0.677560	
	0.658976	
	0.676738	
	0.700585	
	0.690882	
	0.651740	
	0.634143	
	0.637596	
	0.640557	
	0.631511	
	0.618354	
	0.634143	
	0.638912	
	0.633320	
	0.633649	
	0.670817	
	0.679534	
	0.689072	
	0.689237	
	0.654207	
	0.561780	
	0.244700	
	0.172008	
	0.129084	
	0.124972	
	0.126617	
	0.128261	
	0.129906	
	0.131715	
	0.133031	
	0.134346	
	0.136156	
	0.137965	
	0.160496	
	0.218879	
	0.256870	
	0.322161	
	0.528230	
	0.605362	
	0.637267	
	0.664074	
	0.673120	
	0.665390	
	0.646313	
	0.626906	
	0.568687	
	0.295025	
	0.225129	
	0.204900	
	0.210656	
	0.228747	
	0.242726	
	0.269369	
	0.286144	
	0.306866	
	0.253087	
	0.215590	
	0.202927	
	0.201611	
	0.231543	
	0.277756	
	0.322490	
	0.375939	
	0.564905	
	0.578884	
	0.558162	
	0.378900	
	0.428402	
	0.513922	
	0.558162	
	0.556517	
	0.511948	0.175932
	0.429718	
	0.323641	
	0.290749	
	0.280388	
	0.258843	
	0.249633	
	0.238615	
	0.210327	
	0.224142	
	0.268875	
	0.277098	
	0.261968	
	0.276441	
	0.356368	
	0.404720	
	0.423304	
	0.556517	
	0.599277	
	0.619341	
	0.629867	
	0.635294	
	0.637267	
	0.614407	
	0.450440	
	0.288775	
	0.306043	
	0.282690	
	0.265422	
	0.288940	
	0.291078	
	0.239272	
	0.214110	
	0.197828	
	0.191579	
	0.226444	
	0.290420	
	0.338113	
	0.307359	
	0.273974	
	0.258185	
	0.309662	
	0.579213	
	0.622301	
	0.633649	
	0.621644	
	0.470504	
	0.275947	
	0.235983	
	0.226116	
	0.241904	
	0.320352	
	0.574937	
	0.601415	
	0.614572	
	0.615230	
	0.605691	
	0.630196	
	0.627564	
	0.606513	
	0.566056	
	0.518856	
	0.364427	
	0.337949	
	0.304728	
	0.406200	
	0.518362	
	0.285815	
	0.204900	
	0.154411	
	0.154082	
	0.155562	
	0.157206	
	0.158851	
	0.241739	
	0.608487	
	0.670159	
	0.706505	
	0.706670	
	0.712426	
	0.716373	
	0.692855	
	0.643846	
	0.565727	
	0.506850	
	0.455209	
	0.378242	
	0.585627	
	0.651082	
	0.673449	
	0.690388	
	0.672133	
	0.605691	
	0.534150	
	0.598455	
	0.649602	
	0.678876	
	0.664568	
	0.622959	
	0.616545	
	0.639570	0.217934
	0.656509	
	0.656180	
	0.663252	
	0.696309	
	0.721471	
	0.747949	
	0.772454	
	0.774592	
	0.763902	
	0.742193	
	0.697953	
	0.628715	
	0.318707	
	0.208847	
	0.144379	
	0.119545	
	0.121025	
	0.123492	
	0.124972	
	0.126123	
	0.127932	
	0.129248	
	0.183849	
	0.248482	
	0.284170	
	0.356368	
	0.546156	
	0.487937	
	0.258185	
	0.218057	
	0.263613	
	0.547965	
	0.617368	
	0.620657	
	0.609309	
	0.591876	
	0.616052	
	0.622137	
	0.607007	
	0.577404	
	0.428567	
	0.236477	
	0.223320	
	0.216412	
	0.198651	
	0.188783	
	0.179080	
	0.168554	
	0.179738	
	0.188947	
	0.188947	
	0.206216	
	0.274467	
	0.589574	
	0.661443	
	0.699762	
	0.710288	
	0.710617	
	0.672626	
	0.593521	
	0.246673	
	0.176613	
	0.142734	
	0.136813	
	0.138622	
	0.139938	
	0.206545	
	0.275783	
	0.412778	
	0.597797	
	0.637432	
	0.666706	
	0.675751	
	0.659470	
	0.635458	
	0.594179	
	0.565234	
	0.491226	
	0.336798	
	0.297327	
	0.287130	
	0.262297	
	0.270684	
	0.272822	
	0.248318	
	0.214110	
	0.187961	
	0.195361	
	0.219208	
	0.241081	
	0.246015	
	0.237134	
	0.214110	
	0.190428	
	0.173981	
	0.172008	
	0.179409	
	0.199308	
	0.224800	
	0.230556	0.179802
	0.223155	
	0.221346	
	0.220853	
	0.238121	
	0.231378	
	0.235161	
	0.260817	
	0.309333	
	0.369690	
	0.490733	
	0.521651	
	0.568687	
	0.607007	
	0.627071	
	0.636938	
	0.630689	
	0.632169	
	0.617203	
	0.589409	
	0.555037	
	0.561122	
	0.592534	
	0.616381	
	0.627400	
	0.623946	
	0.598948	
	0.559148	
	0.399786	
	0.296834	
	0.283512	
	0.313609	
	0.316569	
	0.286637	
	0.289762	
	0.299465	
	0.335482	
	0.503396	
	0.461130	
	0.251442	
	0.185823	
	0.159838	
	0.156878	
	0.158193	
	0.159509	
	0.221511	
	0.267889	
	0.540400	
	0.634636	
	0.657825	
	0.668021	
	0.659141	
	0.639570	
	0.661114	
	0.673449	
	0.673942	
	0.679369	
	0.711275	
	0.724103	
	0.725089	
	0.693184	
	0.679534	
	0.694993	
	0.685783	
	0.566220	
	0.215426	
	0.181218	
	0.181382	
	0.188454	
	0.193223	
	0.221182	
	0.309662	
	0.600593	
	0.630196	
	0.669666	
	0.707821	
	0.718346	
	0.693348	
	0.653220	
	0.593192	
	0.293215	
	0.200131	
	0.165594	
	0.142734	
	0.142569	
	0.143885	
	0.145201	
	0.148161	
	0.277098	
	0.626413	
	0.705354	
	0.741042	
	0.765876	
	0.759626	
	0.733477	
	0.722951	
	0.706176	
	0.688579	
	0.669995	
	0.631840	
	0.600428	0.136496
	0.595988	
	0.593521	
	0.605691	
	0.602237	
	0.571976	
	0.341238	
	0.196513	
	0.136649	
	0.131551	
	0.133360	
	0.135498	
	0.137307	
	0.139116	
	0.140267	
	0.142569	
	0.267889	
	0.418206	
	0.566385	
	0.593850	
	0.604211	
	0.600757	
	0.614572	
	0.648780	
	0.673613	
	0.680192	
	0.684632	
	0.707328	
	0.731010	
	0.736273	
	0.718346	
	0.693184	
	0.683810	
	0.695980	
	0.661443	
	0.582337	
	0.268546	
	0.215097	
	0.205229	
	0.195197	
	0.174968	
	0.185494	
	0.218715	
	0.249140	
	0.259008	
	0.245193	
	0.278414	
	0.281539	
	0.258514	
	0.210492	
	0.178257	
	0.152766	
	0.139445	
	0.139116	
	0.140596	
	0.142241	
	0.143721	
	0.190428	
	0.217399	
	0.238943	
	0.236148	
	0.217399	
	0.214768	
	0.213781	
	0.234174	
	0.272987	
	0.284992	
	0.216577	
	0.183027	
	0.196348	
	0.236641	
	0.296669	
	0.556353	
	0.628386	
	0.655851	
	0.696473	
	0.721307	
	0.720649	
	0.696473	
	0.663581	
	0.627564	
	0.594014	
	0.564247	
	0.534808	
	0.470669	
	0.375610	
	0.359987	
	0.355382	
	0.345185	
	0.323970	
	0.285815	
	0.249140	
	0.239272	
	0.240259	
	0.245193	
	0.226773	
	0.206380	
	0.203255	
	0.211314	
	0.205887	
	0.207203	0.156774
	0.211643	
	0.229569	
	0.249798	
	0.263777	
	0.292887	
	0.377090	
	0.560793	
	0.612927	
	0.651246	
	0.661772	
	0.670324	
	0.675258	
	0.687263	
	0.699598	
	0.703052	
	0.686112	
	0.663746	
	0.661443	
	0.674107	
	0.679863	
	0.693020	
	0.715551	
	0.727556	
	0.720484	
	0.693020	
	0.657332	
	0.530697	
	0.227760	
	0.192730	
	0.150299	
	0.134840	
	0.135333	
	0.137636	
	0.138951	
	0.140760	
	0.141912	
	0.143392	
	0.145201	
	0.146517	
	0.147832	
	0.203584	
	0.263941	
	0.263284	
	0.256705	
	0.228418	
	0.194539	
	0.178093	
	0.176448	
	0.213617	
	0.231872	
	0.259008	
	0.297656	
	0.521487	
	0.612269	
	0.633156	
	0.654371	
	0.675258	
	0.664897	
	0.658976	
	0.658812	
	0.671640	
	0.700585	
	0.724760	
	0.731832	
	0.718840	
	0.691539	
	0.674600	
	0.661443	
	0.628222	
	0.565562	
	0.410476	
	0.332851	
	0.432349	
	0.539413	
	0.580857	
	0.611283	
	0.614572	
	0.588587	
	0.512277	
	0.305715	
	0.236970	
	0.208189	
	0.177271	
	0.163127	
	0.169048	
	0.172995	
	0.175462	
	0.177106	
	0.192072	
	0.198157	
	0.200295	
	0.205558	
	0.247495	
	0.305550	
	0.553063	
	0.635952	
	0.691210	
	0.738904	
	0.775579	
	0.789229	0.179473
	0.777552	
	0.746963	
	0.713577	
	0.645819	
	0.502410	
	0.230720	
	0.188125	
	0.170363	
	0.172337	
	0.190428	
	0.212959	
	0.225622	
	0.227267	
	0.226116	
	0.227431	
	0.236148	
	0.253416	
	0.257856	
	0.259994	
	0.279565	
	0.272822	
	0.278743	
	0.269204	
	0.259008	
	0.252923	
	0.251936	
	0.273316	
	0.253580	
	0.265093	
	0.302590	
	0.533493	
	0.640721	
	0.711933	
	0.720484	
	0.695486	
	0.661608	
	0.643188	
	0.640885	
	0.646806	
	0.663910	
	0.674271	
	0.666048	
	0.641050	
	0.619341	
	0.585627	
	0.553063	
	0.536617	
	0.419850	
	0.261310	
	0.220359	
	0.202598	
	0.177271	
	0.150464	
	0.145201	
	0.152437	
	0.173981	
	0.224635	
	0.228747	
	0.219208	
	0.216083	
	0.277263	
	0.555530	
	0.610131	
	0.622959	
	0.620492	
	0.590560	
	0.606020	
	0.612763	
	0.535466	
	0.277263	
	0.244864	
	0.230227	
	0.241739	
	0.260488	
	0.285486	
	0.398141	
	0.585462	
	0.632662	
	0.614078	
	0.568029	
	0.563424	
	0.520665	
	0.522967	
	0.502245	
	0.536617	
	0.556682	
	0.607007	
	0.635458	
	0.607829	
	0.585133	
	0.469682	
	0.301110	
	0.289926	
	0.563918	
	0.632991	
	0.661443	
	0.640392	
	0.598948	
	0.564411	
	0.550925	0.135644
	0.559806	
	0.336633	
	0.215919	
	0.188290	
	0.182040	
	0.193552	
	0.203749	
	0.198486	
	0.214274	
	0.220030	
	0.221182	
	0.236148	
	0.283841	
	0.339264	
	0.300616	
	0.252100	
	0.238615	
	0.255225	
	0.281374	
	0.294860	
	0.299629	
	0.316569	
	0.396661	
	0.468695	
	0.528723	
	0.556682	
	0.526585	
	0.457183	
	0.333673	
	0.318049	
	0.299301	
	0.286144	
	0.252758	
	0.259172	
	0.329726	
	0.316569	
	0.305386	
	0.313609	
	0.354724	
	0.370348	
	0.317556	
	0.291900	
	0.330713	
	0.419192	
	0.310813	
	0.301767	
	0.323312	
	0.374624	
	0.556024	
	0.617697	
	0.652562	
	0.664732	
	0.667364	
	0.668844	
	0.668350	
	0.670653	
	0.685783	
	0.687921	
	0.656016	
	0.593356	
	0.559642	
	0.581680	
	0.622301	
	0.652727	
	0.659798	
	0.663252	
	0.667528	
	0.668844	
	0.646642	
	0.557997	
	0.252265	
	0.206709	
	0.190099	
	0.173653	
	0.155891	
	0.168719	
	0.188454	
	0.203913	
	0.259172	
	0.436461	
	0.406200	
	0.280881	
	0.265093	
	0.304728	
	0.304892	
	0.293215	
	0.427909	
	0.583818	
	0.639076	
	0.651246	
	0.655358	
	0.669995	
	0.685290	
	0.682494	
	0.689072	
	0.686441	
	0.680521	
	0.679040	
	0.674929	
	0.656016	0.164991
	0.640063	
	0.637596	
	0.587600	
	0.299958	
	0.216577	
	0.182862	
	0.172337	
	0.176777	
	0.209012	
	0.299958	
	0.523789	
	0.321996	
	0.219208	
	0.167239	
	0.156878	
	0.181711	
	0.219537	
	0.234667	
	0.263941	
	0.309004	
	0.378571	
	0.612105	
	0.653878	
	0.668515	
	0.652727	
	0.628222	
	0.626248	
	0.625920	
	0.619012	
	0.610789	
	0.633649	
	0.625262	
	0.624275	
	0.646806	
	0.674929	
	0.670817	
	0.647299	
	0.596481	
	0.411298	
	0.282032	
	0.277263	
	0.263777	
	0.242397	
	0.247166	
	0.245686	
	0.223649	
	0.208683	
	0.203749	
	0.203255	
	0.192730	
	0.186645	
	0.192237	
	0.217564	
	0.234667	
	0.227596	
	0.234667	
	0.220853	
	0.206380	
	0.208518	
	0.217235	
	0.208518	
	0.208847	
	0.220853	
	0.209176	
	0.190099	
	0.212794	
	0.250785	
	0.272493	
	0.309826	
	0.577404	
	0.620986	
	0.573457	
	0.553063	
	0.519678	
	0.567865	
	0.587765	
	0.615887	
	0.642037	
	0.667199	
	0.666048	
	0.650589	
	0.643352	
	0.619506	
	0.485141	
	0.236805	
	0.201282	
	0.191250	
	0.192730	
	0.195690	
	0.203091	
	0.200624	
	0.205229	
	0.213617	
	0.225293	
	0.226444	
	0.219537	
	0.229898	
	0.239930	
	0.253252	
	0.280716	0.183140
	0.307524	
	0.325121	
	0.328081	
	0.501258	
	0.554544	
	0.520665	
	0.557175	
	0.570661	
	0.541551	
	0.509975	
	0.598619	
	0.633649	
	0.652398	
	0.654371	
	0.657660	
	0.632005	
	0.617039	
	0.630360	
	0.635623	
	0.622466	
	0.570661	
	0.225622	
	0.163456	
	0.151615	
	0.152766	
	0.154575	
	0.505370	
	0.605526	
	0.594179	
	0.613421	
	0.649273	
	0.671969	
	0.699269	
	0.721142	
	0.743345	
	0.749430	
	0.731503	
	0.711110	
	0.692526	
	0.670324	
	0.636445	
	0.606349	
	0.532341	
	0.279236	
	0.297985	
	0.272987	
	0.323476	
	0.517869	
	0.589574	
	0.570167	
	0.366894	
	0.286473	
	0.298314	
	0.334824	
	0.545498	
	0.612927	
	0.624110	
	0.621644	
	0.606678	
	0.645984	
	0.666377	
	0.662430	
	0.663252	
	0.670324	
	0.680685	
	0.672297	
	0.653384	
	0.630689	
	0.608487	
	0.524283	
	0.244206	
	0.192566	
	0.157700	
	0.132044	
	0.132537	
	0.133853	
	0.135498	
	0.137142	
	0.138622	
	0.139938	
	0.141912	
	0.300616	
	0.550925	
	0.608322	
	0.614243	
	0.602895	
	0.588587	
	0.643352	
	0.653384	
	0.609309	
	0.582337	
	0.566056	
	0.600922	
	0.613092	
	0.588258	
	0.611776	
	0.633485	
	0.631182	
	0.637432	
	0.625755	0.108558
	0.625755	
	0.620163	
	0.601415	
	0.602402	
	0.598290	
	0.599277	
	0.576252	
	0.482181	
	0.302261	
	0.273480	
	0.235325	
	0.207203	
	0.180560	
	0.161318	
	0.150299	
	0.138787	
	0.139609	
	0.141089	
	0.142569	
	0.143885	
	0.145694	
	0.146517	
	0.198486	
	0.205887	
	0.231214	
	0.251771	
	0.305879	
	0.520007	
	0.601415	
	0.646148	
	0.680356	
	0.686277	
	0.653056	
	0.632334	
	0.624275	
	0.631018	
	0.632169	
	0.646148	
	0.670324	
	0.676409	
	0.680685	
	0.688415	
	0.690717	
	0.666541	
	0.626742	
	0.585956	
	0.499943	
	0.259501	
	0.221511	
	0.206874	
	0.194704	
	0.219866	
	0.241904	
	0.210327	
	0.174968	
	0.156220	
	0.161482	
	0.163456	
	0.166910	
	0.190263	
	0.230556	
	0.252758	
	0.283512	
	0.350777	
	0.396332	
	0.408667	
	0.495173	
	0.474287	
	0.563753	
	0.588422	
	0.617532	
	0.629373	
	0.609145	
	0.554379	
	0.288611	
	0.253909	
	0.287788	
	0.344198	
	0.449453	
	0.518198	
	0.394359	
	0.253416	
	0.209834	
	0.202104	
	0.208683	
	0.212959	
	0.177271	
	0.169541	
	0.170857	
	0.168225	
	0.175791	
	0.217070	
	0.291406	
	0.588751	
	0.675093	
	0.708643	
	0.675258	
	0.580693	
	0.293709	
	0.247824	0.167292
	0.306372	
	0.458499	
	0.579871	
	0.666212	
	0.703216	
	0.715222	
	0.725254	
	0.712261	
	0.713248	
	0.712919	
	0.717524	
	0.710288	
	0.715057	
	0.700749	
	0.644668	
	0.369525	
	0.215426	
	0.204571	
	0.212301	
	0.213781	
	0.207531	
	0.207203	
	0.205722	
	0.230063	
	0.245686	
	0.301110	
	0.332193	
	0.345678	
	0.488759	
	0.510468	
	0.311306	
	0.245029	
	0.207531	
	0.173159	
	0.163949	
	0.181547	
	0.232529	
	0.332193	
	0.550925	
	0.587929	
	0.581186	
	0.600593	
	0.640228	
	0.665061	
	0.658483	
	0.610460	
	0.555859	
	0.527572	
	0.546485	
	0.562931	
	0.608158	
	0.640885	
	0.658154	
	0.677725	
	0.698282	
	0.719333	
	0.728214	
	0.727227	
	0.713248	
	0.691704	
	0.640885	
	0.435474	
	0.211479	
	0.187796	
	0.177271	
	0.169212	
	0.183191	
	0.227267	
	0.252429	
	0.277756	
	0.296505	
	0.268053	
	0.239108	
	0.240095	
	0.240753	
	0.243548	
	0.272987	
	0.307030	
	0.314924	
	0.321174	
	0.299465	
	0.275618	
	0.262132	
	0.229405	
	0.228089	
	0.247495	
	0.266902	
	0.265422	
	0.284664	
	0.472971	
	0.560300	
	0.548459	
	0.576252	
	0.588587	
	0.583489	
	0.596481	
	0.580199	
	0.386136	
	0.339264	
	0.323476	0.184189
	0.309333	
	0.273645	
	0.248153	
	0.268875	
	0.282526	
	0.283841	
	0.281703	
	0.269862	
	0.268546	
	0.264270	
	0.280059	
	0.325285	
	0.318049	
	0.298807	
	0.314760	
	0.289762	
	0.271507	
	0.267724	
	0.303412	
	0.344692	
	0.320680	
	0.313280	
	0.323476	
	0.536453	
	0.587600	
	0.595001	
	0.606020	
	0.591547	
	0.536617	
	0.464255	
	0.357191	
	0.316733	
	0.359822	
	0.508824	
	0.374130	
	0.442875	
	0.539249	
	0.509317	
	0.585791	
	0.610789	
	0.616381	
	0.579048	
	0.518856	
	0.374788	
	0.364098	
	0.544183	
	0.577568	
	0.591218	
	0.559971	
	0.324299	
	0.328903	
	0.288940	
	0.247331	
	0.252923	
	0.295025	
	0.381202	
	0.583324	
	0.645161	
	0.656180	
	0.656180	
	0.640557	
	0.626906	
	0.635952	
	0.632827	
	0.609145	
	0.591218	
	0.590067	
	0.563918	
	0.389096	
	0.346336	
	0.570990	
	0.631182	
	0.637103	
	0.623617	
	0.599441	
	0.557010	
	0.358177	
	0.268217	
	0.262955	
	0.331699	
	0.614572	
	0.676245	
	0.723116	
	0.725912	
	0.709630	
	0.678218	
	0.632169	
	0.567536	
	0.294860	
	0.225622	
	0.181876	
	0.171186	
	0.163456	
	0.199144	
	0.236805	
	0.216248	
	0.179244	
	0.162305	
	0.166910	
	0.190263	0.174755
	0.197664	
	0.186645	
	0.169541	
	0.154246	
	0.147832	
	0.148819	
	0.150135	
	0.151286	
	0.152766	
	0.154082	
	0.225129	
	0.280223	
	0.376433	
	0.583982	
	0.608980	
	0.602895	
	0.574279	
	0.564576	
	0.551748	
	0.534644	
	0.535466	
	0.570332	
	0.576581	
	0.553721	
	0.537604	
	0.581022	
	0.588751	
	0.583489	
	0.533822	
	0.503232	
	0.508824	
	0.507672	
	0.560300	
	0.637761	
	0.655029	
	0.612598	
	0.525105	
	0.260652	
	0.219208	
	0.213288	
	0.224142	
	0.248153	
	0.284335	
	0.342883	
	0.530697	
	0.580364	
	0.620328	
	0.652727	
	0.668350	
	0.664074	
	0.639899	
	0.606513	
	0.559148	
	0.555037	
	0.505699	
	0.337620	
	0.293380	
	0.311964	
	0.468037	
	0.562273	
	0.547143	
	0.465899	
	0.336140	
	0.307359	
	0.310813	
	0.338442	
	0.388274	
	0.401760	
	0.357191	
	0.394523	
	0.474780	
	0.496982	
	0.494351	
	0.482510	
	0.530532	
	0.537275	
	0.422811	
	0.349790	
	0.343705	
	0.348803	
	0.369854	
	0.532177	
	0.586449	
	0.605033	
	0.615065	
	0.630031	
	0.636609	
	0.632498	
	0.633156	
	0.624604	
	0.617368	
	0.605362	
	0.591218	
	0.579706	
	0.580199	
	0.611118	
	0.605033	
	0.573785	
	0.579377	
	0.594343	0.151582
	0.619670	
	0.633978	
	0.608816	
	0.533164	
	0.320516	
	0.271507	
	0.296011	
	0.540071	
	0.602566	
	0.629044	
	0.617861	
	0.596481	
	0.633320	
	0.617532	
	0.569181	
	0.520500	
	0.281374	
	0.245193	
	0.274631	
	0.554544	
	0.616052	
	0.645326	
	0.661608	
	0.657496	
	0.666870	
	0.664239	
	0.641872	
	0.600264	
	0.342060	
	0.248482	
	0.172008	
	0.140760	
	0.147010	
	0.197335	
	0.262461	
	0.557997	
	0.627893	
	0.664897	
	0.681014	
	0.677725	
	0.638254	
	0.606184	
	0.572634	
	0.568358	
	0.542867	
	0.380380	
	0.380544	
	0.333673	
	0.232201	
	0.160331	
	0.136978	
	0.138293	
	0.140596	
	0.160989	
	0.174310	
	0.196348	
	0.230063	
	0.246509	
	0.235490	
	0.228747	
	0.228254	
	0.231378	
	0.280716	
	0.258679	
	0.229898	
	0.238943	
	0.291571	
	0.527079	
	0.475602	
	0.328575	
	0.366894	
	0.531519	
	0.583818	
	0.608651	
	0.632005	
	0.646806	
	0.668021	
	0.674271	
	0.654371	
	0.637103	
	0.638254	
	0.593521	
	0.307524	
	0.218386	
	0.182698	
	0.185658	
	0.192072	
	0.193717	
	0.202598	
	0.202269	
	0.198815	
	0.190921	
	0.184014	
	0.181218	
	0.191743	
	0.204900	
	0.215261	
	0.218879	
	0.229240	
	0.245851	0.137895
	0.267066	
	0.271836	
	0.286802	
	0.312457	
	0.377913	
	0.495009	
	0.535466	
	0.558655	
	0.532999	
	0.497805	
	0.373308	
	0.363769	
	0.463268	
	0.569674	
	0.598455	
	0.612927	
	0.615394	
	0.613421	
	0.610625	
	0.610625	
	0.608980	
	0.595988	
	0.572305	
	0.543854	
	0.499614	
	0.463103	
	0.437448	
	0.361138	
	0.352915	
	0.346172	
	0.338113	
	0.321338	
	0.304728	
	0.284335	
	0.302425	
	0.317885	
	0.340745	
	0.343869	
	0.324792	
	0.324792	
	0.359658	
	0.415739	
	0.510633	
	0.538426	
	0.572141	
	0.597632	
	0.616052	
	0.623782	
	0.620821	
	0.625262	
	0.625426	
	0.628551	
	0.625755	
	0.628715	
	0.628551	
	0.615230	
	0.606678	
	0.590889	
	0.571976	
	0.560793	
	0.522145	
	0.464584	
	0.343705	
	0.314924	
	0.298972	
	0.331699	
	0.443862	
	0.451098	
	0.425277	
	0.565562	
	0.601086	
	0.622630	
	0.645984	
	0.641214	
	0.647464	
	0.638583	
	0.640228	
	0.647299	
	0.646313	
	0.645819	
	0.655851	
	0.659634	
	0.665555	
	0.665061	
	0.658483	
	0.649437	
	0.659798	
	0.678218	
	0.685125	
	0.682165	
	0.680027	
	0.653384	
	0.641708	
	0.641872	
	0.642530	
	0.619999	
	0.605855	
	0.580693	
	0.538262	
	0.347981	0.177164
	0.263119	
	0.223320	
	0.197335	
	0.165923	
	0.131715	
	0.133195	
	0.135004	
	0.136978	
	0.138787	
	0.140925	
	0.142241	
	0.143556	
	0.145530	
	0.277263	
	0.414094	
	0.582337	
	0.578390	
	0.554873	
	0.546814	
	0.578719	
	0.607993	
	0.628222	
	0.635787	
	0.622301	
	0.599441	
	0.558162	
	0.308017	
	0.245029	
	0.228747	
	0.209834	
	0.186809	
	0.180395	
	0.199966	
	0.242397	
	0.320845	
	0.527408	
	0.565234	
	0.587271	
	0.591547	
	0.605855	
	0.601086	
	0.582173	
	0.576910	
	0.547143	
	0.482345	
	0.366236	
	0.327259	
	0.278414	
	0.247824	
	0.231872	
	0.226609	
	0.216083	
	0.208354	
	0.200131	
	0.208189	
	0.213945	
	0.223978	
	0.235490	
	0.248482	
	0.256212	
	0.257363	
	0.256705	
	0.273480	
	0.286473	
	0.309497	
	0.347159	
	0.399786	
	0.525763	
	0.532012	
	0.527572	
	0.536946	
	0.571648	
	0.581022	
	0.592863	
	0.582831	
	0.596317	
	0.603388	
	0.602073	
	0.595001	
	0.584311	
	0.569016	
	0.568358	
	0.559313	
	0.549281	
	0.544347	
	0.543031	
	0.524118	
	0.428238	
	0.350283	
	0.323147	
	0.315253	
	0.309004	
	0.294696	
	0.275618	
	0.271342	
	0.265257	
	0.265586	
	0.263448	
	0.266079	
	0.273809	0.104915
	0.282361	
	0.279730	
	0.299301	
	0.320845	
	0.354724	
	0.371828	
	0.403569	
	0.528230	
	0.560793	
	0.576746	
	0.588751	
	0.599277	
	0.606020	
	0.615230	
	0.616216	
	0.617532	
	0.613749	
	0.618354	
	0.615394	
	0.609967	
	0.602073	
	0.598784	
	0.585627	
	0.576252	
	0.562273	
	0.545334	
	0.534808	
	0.477412	
	0.372650	
	0.330877	
	0.315089	
	0.306866	
	0.298643	
	0.283512	
	0.287459	
	0.280716	
	0.285650	
	0.283019	
	0.282526	
	0.297820	
	0.315089	
	0.324627	
	0.345514	
	0.393372	
	0.486128	
	0.524283	
	0.550761	
	0.578061	
	0.587436	
	0.594014	
	0.605855	
	0.613749	
	0.614407	
	0.623946	
	0.621644	
	0.620821	
	0.609473	
	0.607500	
	0.609802	
	0.602237	
	0.592205	
	0.590232	
	0.580199	
	0.573128	
	0.551912	
	0.518856	
	0.486457	
	0.376268	
	0.358013	
	0.333179	
	0.332028	
	0.330548	
	0.352586	
	0.340087	
	0.392550	
	0.432514	
	0.493529	
	0.531190	
	0.557997	
	0.573950	
	0.588916	
	0.589903	
	0.596646	
	0.591218	
	0.588751	
	0.568358	
	0.521487	
	0.498134	
	0.432678	
	0.414259	
	0.361796	
	0.373966	
	0.449947	
	0.563753	
	0.582666	
	0.603717	
	0.604375	
	0.596974	
	0.590889	
	0.579377	0.094416
	0.541716	
	0.502574	
	0.396168	
	0.393701	
	0.390247	
	0.382682	
	0.363605	
	0.333344	
	0.365743	
	0.413930	
	0.372979	
	0.356204	
	0.377090	
	0.344363	
	0.402911	
	0.329890	
	0.313938	
	0.334002	
	0.316569	
	0.306043	
	0.314760	
	0.312786	
	0.305550	
	0.284335	
	0.319036	
	0.461459	
	0.519185	
	0.542209	
	0.568852	
	0.580199	
	0.574279	
	0.568358	
	0.564576	
	0.578884	
	0.589738	
	0.606513	
	0.608487	
	0.611447	
	0.619999	
	0.622466	
	0.616545	
	0.620163	
	0.625591	
	0.648451	
	0.632827	
	0.614901	
	0.601415	
	0.550761	
	0.333344	
	0.260323	
	0.249798	
	0.244864	
	0.244700	
	0.230227	
	0.224635	
	0.225129	
	0.229240	
	0.225458	
	0.224635	
	0.226444	
	0.243548	
	0.250456	
	0.272329	
	0.292229	
	0.325614	
	0.355053	
	0.376433	
	0.496160	
	0.537933	
	0.557010	
	0.562109	
	0.576746	
	0.588587	
	0.603882	
	0.603882	
	0.604869	
	0.603224	
	0.604211	
	0.604211	
	0.596317	
	0.588916	
	0.591218	
	0.569181	
	0.558655	
	0.541716	
	0.522145	
	0.472807	
	0.341074	
	0.323970	
	0.321338	
	0.328410	
	0.311142	
	0.316898	
	0.300287	
	0.306537	
	0.309990	
	0.313280	
	0.311800	
	0.310484	
	0.314431	0.091399
	0.343047	
	0.352421	
	0.385971	
	0.437119	
	0.502081	
	0.528065	
	0.543031	
	0.557175	
	0.571319	
	0.591054	
	0.602566	
	0.611776	
	0.616216	
	0.622137	
	0.619177	
	0.615887	
	0.612927	
	0.611940	
	0.612269	
	0.606020	
	0.597139	
	0.599277	
	0.590560	
	0.582502	
	0.572963	
	0.569016	
	0.560629	
	0.535137	
	0.507179	
	0.448302	
	0.386794	
	0.354066	
	0.346336	
	0.321174	
	0.322490	
	0.312622	
	0.317720	
	0.321832	
	0.328246	
	0.326272	
	0.350941	
	0.346007	
	0.385971	
	0.459814	
	0.527736	
	0.543854	
	0.546485	
	0.572141	
	0.581515	
	0.590560	
	0.593192	
	0.599112	
	0.602895	
	0.608816	
	0.607829	
	0.607335	
	0.607007	
	0.603060	
	0.599606	
	0.598126	
	0.590889	
	0.588422	
	0.578555	
	0.569674	
	0.550925	
	0.540564	
	0.530697	
	0.454716	
	0.367881	
	0.318707	
	0.306537	
	0.287295	
	0.279565	
	0.269698	
	0.269698	
	0.271178	
	0.278085	
	0.279565	
	0.284170	
	0.293051	
	0.307853	
	0.305879	
	0.328246	
	0.361631	
	0.401102	
	0.468695	
	0.507837	
	0.551254	
	0.551583	
	0.577075	
	0.586120	
	0.591876	
	0.595165	
	0.604704	
	0.605691	
	0.606842	
	0.611283	
	0.610954	
	0.611283	
	0.608980	0.058116
	0.601415	
	0.597303	
	0.583653	
	0.573457	
	0.550597	
	0.533986	
	0.523789	
	0.460965	
	0.389261	
	0.343540	
	0.333179	
	0.317062	
	0.308839	
	0.290584	
	0.286966	
	0.285157	
	0.287130	
	0.292064	
	0.291900	
	0.301603	
	0.321338	
	0.323312	
	0.346665	
	0.370841	
	0.445342	
	0.498627	
	0.517869	
	0.547636	
	0.565069	
	0.581186	
	0.588587	
	0.588751	
	0.593685	
	0.602566	
	0.600428	
	0.603717	
	0.602566	
	0.601415	
	0.596152	
	0.589409	
	0.581844	
	0.579542	
	0.570496	
	0.562931	
	0.549281	
	0.532012	
	0.507014	
	0.423962	
	0.352586	
	0.323641	
	0.307359	
	0.294696	
	0.290584	
	0.276441	
	0.278085	
	0.276112	
	0.280881	
	0.283019	
	0.290913	
	0.294696	
	0.304070	
	0.304070	
	0.322818	
	0.348145	
	0.386465	
	0.462446	
	0.512935	
	0.551090	
	0.561286	
	0.568523	
	0.577568	
	0.582173	
	0.586942	
	0.597139	
	0.597797	
	0.606349	
	0.603553	
	0.601908	
	0.596810	
	0.590232	
	0.581351	
	0.580199	
	0.568194	
	0.556517	
	0.529874	
	0.495009	
	0.410640	
	0.345678	
	0.326108	
	0.307853	
	0.296505	
	0.283183	
	0.284499	
	0.276441	
	0.273809	
	0.273974	
	0.279072	
	0.287295	
	0.283348	
	0.290091	0.068872
	0.302261	
	0.312128	
	0.332357	
	0.349626	
	0.383998	
	0.429553	
	0.476425	
	0.536617	
	0.551254	
	0.568029	
	0.570332	
	0.580035	
	0.586778	
	0.599770	
	0.602237	
	0.605362	
	0.607993	
	0.601250	
	0.600099	
	0.598126	
	0.582173	
	0.578555	
	0.567207	
	0.553886	
	0.537275	
	0.519678	
	0.471655	
	0.362782	
	0.331699	
	0.311800	
	0.297327	
	0.282526	
	0.282032	
	0.277263	
	0.283183	
	0.273645	
	0.281539	
	0.277756	
	0.283019	
	0.289104	
	0.303083	
	0.312951	
	0.337455	
	0.373472	
	0.423962	
	0.490897	
	0.510468	
	0.547307	
	0.561944	
	0.573292	
	0.580364	
	0.587271	
	0.590396	
	0.597961	
	0.603060	
	0.604046	
	0.603553	
	0.602073	
	0.599606	
	0.590560	
	0.584969	
	0.579213	
	0.561451	
	0.555037	
	0.529874	
	0.495667	
	0.444848	
	0.350448	
	0.324134	
	0.307030	
	0.302590	
	0.294202	
	0.287788	
	0.274796	
	0.273645	
	0.267395	
	0.271178	
	0.270684	
	0.275289	
	0.279565	
	0.291571	
	0.294696	
	0.309826	
	0.329068	
	0.352586	
	0.394030	
	0.445013	
	0.520829	
	0.536453	
	0.558984	
	0.571976	
	0.577404	
	0.581515	
	0.591712	
	0.596152	
	0.599441	
	0.597468	
	0.593192	
	0.591876	
	0.580528	0.039152
	0.574114	
	0.571648	
	0.561451	
	0.548787	
	0.520336	
	0.492871	
	0.431856	
	0.360480	
	0.327752	
	0.307359	
	0.300287	
	0.289762	
	0.285157	
	0.275125	
	0.270355	
	0.267889	
	0.272329	
	0.274467	
	0.282032	
	0.282032	
	0.294860	
	0.299301	
	0.311964	
	0.333673	
	0.356697	
	0.403733	
	0.479714	
	0.530532	
	0.547636	
	0.564247	
	0.573950	
	0.577239	
	0.582009	
	0.589574	
	0.595988	
	0.601250	
	0.599112	
	0.597632	
	0.596481	
	0.590067	
	0.581515	
	0.578226	
	0.563918	
	0.557504	
	0.529052	
	0.496982	
	0.450111	
	0.374295	
	0.342883	
	0.316076	
	0.299794	
	0.289433	
	0.284664	
	0.275125	
	0.274467	
	0.271342	
	0.276934	
	0.274960	
	0.276441	
	0.284828	
	0.294696	
	0.299958	
	0.319694	
	0.336304	
	0.364920	
	0.414423	
	0.485799	
	0.531848	
	0.548459	
	0.564247	
	0.572305	
	0.581844	
	0.582337	
	0.591054	
	0.596974	
	0.600099	
	0.596974	
	0.592205	
	0.592698	
	0.586778	
	0.571483	
	0.567700	
	0.557668	
	0.556353	
	0.538098	
	0.521487	
	0.501587	
	0.426593	
	0.361467	
	0.338607	
	0.321174	
	0.312128	
	0.304234	
	0.287130	
	0.279401	
	0.273809	
	0.271671	
	0.270684	
	0.269862	
	0.273645	0.056334
	0.281374	
	0.280716	
	0.292064	
	0.303577	
	0.327588	
	0.368867	
	0.430705	
	0.520171	
	0.539084	
	0.559148	
	0.568358	
	0.573785	
	0.579542	
	0.589245	
	0.597303	
	0.599606	
	0.599770	
	0.597468	
	0.596317	
	0.589738	
	0.580035	
	0.573292	
	0.560135	
	0.545827	
	0.521980	
	0.485306	
	0.459650	
	0.363769	
	0.331370	
	0.308839	
	0.298807	
	0.286473	
	0.285815	
	0.274467	
	0.270027	
	0.266573	
	0.268053	
	0.272987	
	0.277592	
	0.280716	
	0.291242	
	0.295518	
	0.314102	
	0.326272	
	0.359493	
	0.396168	
	0.459156	
	0.516553	
	0.536124	
	0.565562	
	0.568852	
	0.576746	
	0.583982	
	0.590067	
	0.595988	
	0.597303	
	0.596646	
	0.593521	
	0.592698	
	0.586449	
	0.579048	
	0.570990	
	0.557504	
	0.541058	
	0.524612	
	0.490897	
	0.460801	
	0.356204	
	0.335646	
	0.302590	
	0.296669	
	0.289433	
	0.284992	
	0.272987	
	0.269204	
	0.266079	
	0.265586	
	0.265915	
	0.271836	
	0.276605	
	0.288282	
	0.294696	
	0.307853	
	0.321503	
	0.345678	
	0.364098	
	0.415410	
	0.494186	
	0.539742	
	0.560464	
	0.571319	
	0.575101	
	0.579048	
	0.584640	
	0.593521	
	0.593521	
	0.591054	
	0.590725	
	0.586285	
	0.581351	0.043300
	0.573621	
	0.568852	
	0.549939	
	0.542045	
	0.515073	
	0.478234	
	0.409325	
	0.350612	
	0.323641	
	0.303905	
	0.292722	
	0.285815	
	0.280223	
	0.271013	
	0.264270	
	0.262132	
	0.263777	
	0.267724	
	0.271507	
	0.276934	
	0.283183	
	0.286144	
	0.300287	
	0.311142	
	0.327752	
	0.367058	
	0.405049	
	0.517375	
	0.536946	
	0.557504	
	0.566385	
	0.569674	
	0.578061	
	0.586613	
	0.592205	
	0.594343	
	0.592534	
	0.595001	
	0.593850	
	0.589903	
	0.577404	
	0.569345	
	0.565069	
	0.545827	
	0.523296	
	0.472971	
	0.407516	
	0.358013	
	0.327588	
	0.296998	
	0.292722	
	0.281703	
	0.278085	
	0.270355	
	0.261639	
	0.259666	
	0.261146	
	0.264599	
	0.273809	
	0.279894	
	0.289926	
	0.289433	
	0.300616	
	0.318707	
	0.339758	
	0.374295	
	0.381695	
	0.507672	
	0.530697	
	0.546485	
	0.560958	
	0.579213	
	0.580199	
	0.588094	
	0.590396	
	0.592041	
	0.593850	
	0.593356	
	0.590889	
	0.586120	
	0.579871	
	0.567700	
	0.559806	
	0.547965	
	0.528394	
	0.512771	
	0.495667	
	0.391234	
	0.332357	
	0.305221	
	0.294696	
	0.280552	
	0.277263	
	0.271013	
	0.262461	
	0.259337	
	0.265586	
	0.272165	
	0.273645	
	0.280716	0.024178
	0.289762	
	0.297163	
	0.307195	
	0.340909	
	0.377419	
	0.423304	
	0.432185	
	0.512771	
	0.544018	
	0.554215	
	0.567536	
	0.580035	
	0.585627	
	0.592205	
	0.598948	
	0.596152	
	0.596152	
	0.586778	
	0.587436	
	0.584640	
	0.569181	
	0.562602	
	0.557010	
	0.538591	
	0.518362	
	0.465570	
	0.426264	
	0.353737	
	0.328903	
	0.300945	
	0.293873	
	0.286144	
	0.284664	
	0.273974	
	0.263119	
	0.264435	
	0.259666	
	0.259666	
	0.262955	
	0.262955	
	0.271507	
	0.279072	
	0.292393	
	0.308510	
	0.326272	
	0.362453	
	0.404062	
	0.495338	
	0.534808	
	0.557339	
	0.568358	
	0.573621	
	0.575595	
	0.587929	
	0.597468	
	0.599935	
	0.599935	
	0.596974	
	0.595659	
	0.585133	
	0.573950	
	0.564247	
	0.553228	
	0.535466	
	0.513264	
	0.472971	
	0.433172	
	0.360973	
	0.321996	
	0.307853	
	0.299136	
	0.286802	
	0.281868	
	0.267724	
	0.257692	
	0.255554	
	0.254567	
	0.257692	
	0.266408	
	0.277098	
	0.291406	
	0.302754	
	0.325121	
	0.342060	
	0.354395	
	0.379393	
	0.444684	
	0.515566	
	0.541880	
	0.559971	
	0.565234	
	0.576088	
	0.583160	
	0.592205	
	0.597797	
	0.597303	
	0.597468	
	0.590067	
	0.589903	
	0.584475	0.032249
	0.577075	
	0.565398	
	0.557668	
	0.542538	
	0.518362	
	0.473958	
	0.448302	
	0.390905	
	0.339922	
	0.311142	
	0.303083	
	0.294531	
	0.282690	
	0.273645	
	0.263941	
	0.264928	
	0.266244	
	0.270520	
	0.268875	
	0.269862	
	0.283019	
	0.293215	
	0.299465	
	0.322490	
	0.337127	
	0.371499	
	0.413601	
	0.513593	
	0.533986	
	0.559313	
	0.570003	
	0.577733	
	0.580199	
	0.586285	
	0.595001	
	0.592534	
	0.595659	
	0.595988	
	0.593521	
	0.586613	
	0.579706	
	0.569510	
	0.560793	
	0.553392	
	0.530697	
	0.500929	
	0.437941	
	0.363276	
	0.331206	
	0.305879	
	0.300781	
	0.287624	
	0.281374	
	0.274467	
	0.264106	
	0.262955	
	0.263284	
	0.272165	
	0.271836	
	0.275289	
	0.285157	
	0.294202	
	0.303905	
	0.323147	
	0.331535	
	0.371663	
	0.434816	
	0.511619	
	0.534808	
	0.560958	
	0.564247	
	0.571976	
	0.581844	
	0.585627	
	0.597468	
	0.594836	
	0.595659	
	0.593521	
	0.590396	
	0.588587	
	0.580857	
	0.574772	
	0.566056	
	0.553063	
	0.532670	
	0.515731	
	0.474122	
	0.416725	
	0.340909	
	0.307688	
	0.302261	
	0.288446	
	0.280881	
	0.274960	
	0.265422	
	0.265751	
	0.265257	
	0.269040	
	0.273151	
	0.279401	0.033938
	0.290584	
	0.305715	
	0.313938	
	0.330713	
	0.355546	
	0.416232	
	0.452578	
	0.492542	
	0.534808	
	0.549939	
	0.562602	
	0.575430	
	0.590725	
	0.596481	
	0.605033	
	0.600428	
	0.604375	
	0.600264	
	0.592205	
	0.583489	
	0.577404	
	0.575266	
	0.567043	
	0.544511	
	0.523625	
	0.481194	
	0.428402	
	0.366236	
	0.334989	
	0.315911	
	0.299465	
	0.288775	
	0.282032	
	0.278250	
	0.262461	
	0.265586	
	0.264106	
	0.266737	
	0.275783	
	0.275454	
	0.281374	
	0.294202	
	0.298149	
	0.316733	
	0.339100	
	0.389261	
	0.446000	
	0.480865	
	0.532506	
	0.555037	
	0.559806	
	0.567043	
	0.580035	
	0.584640	
	0.600922	
	0.600099	
	0.601086	
	0.598619	
	0.594014	
	0.591383	
	0.584311	
	0.576417	
	0.563753	
	0.548952	
	0.526092	
	0.498956	
	0.449947	
	0.387287	
	0.325285	
	0.307030	
	0.296669	
	0.285979	
	0.286802	
	0.281045	
	0.270520	
	0.272822	
	0.267066	
	0.264435	
	0.267724	
	0.271178	
	0.275947	
	0.292064	
	0.300616	
	0.326765	
	0.341896	
	0.393865	
	0.464090	
	0.512935	
	0.540564	
	0.563096	
	0.574772	
	0.577897	
	0.586942	
	0.590067	
	0.600428	
	0.600099	
	0.601908	
	0.594672	
	0.594836	
	0.588587	0.034009
	0.581022	
	0.568194	
	0.563424	
	0.547965	
	0.534315	
	0.504712	
	0.482016	
	0.439421	
	0.340251	
	0.309990	
	0.302261	
	0.293215	
	0.279236	
	0.277921	
	0.262461	
	0.265257	
	0.266244	
	0.269204	
	0.272987	
	0.274303	
	0.283677	
	0.289926	
	0.303577	
	0.318871	
	0.328739	
	0.357849	
	0.408502	
	0.485963	
	0.535466	
	0.560629	
	0.565891	
	0.575759	
	0.581844	
	0.581186	
	0.594836	
	0.594836	
	0.595988	
	0.590067	
	0.587271	
	0.578226	
	0.576252	
	0.564576	
	0.566220	
	0.557668	
	0.538755	
	0.513922	
	0.483497	
	0.421659	
	0.340087	
	0.313609	
	0.301767	
	0.296505	
	0.287295	
	0.284828	
	0.270520	
	0.268053	
	0.266573	
	0.270355	
	0.269862	
	0.274631	
	0.284664	
	0.299629	
	0.301767	
	0.324792	
	0.341074	
	0.379722	
	0.449124	
	0.486950	
	0.544511	
	0.562109	
	0.574443	
	0.579706	
	0.589245	
	0.588094	
	0.594672	
	0.595330	
	0.600099	
	0.596152	
	0.594836	
	0.592370	
	0.584640	
	0.577897	
	0.572305	
	0.552241	
	0.538920	
	0.506192	
	0.459156	
	0.391399	
	0.331864	
	0.313280	
	0.293709	
	0.285486	
	0.276605	
	0.276112	
	0.263119	
	0.266737	
	0.263284	
	0.265422	
	0.269369	
	0.270191	0.047896
	0.279072	
	0.291242	
	0.298643	
	0.315582	
	0.331535	
	0.367716	
	0.390741	
	0.457512	
	0.527572	
	0.555201	
	0.568852	
	0.576581	
	0.584804	
	0.587929	
	0.597468	
	0.594508	
	0.597468	
	0.595001	
	0.593356	
	0.589245	
	0.582173	
	0.574279	
	0.570496	
	0.555859	
	0.541716	
	0.518856	
	0.482181	
	0.414752	
	0.335646	
	0.309004	
	0.292229	
	0.287295	
	0.277592	
	0.275454	
	0.263613	
	0.266902	
	0.263284	
	0.265915	
	0.268217	
	0.274303	
	0.281703	
	0.296505	
	0.294038	
	0.321174	
	0.338607	
	0.359329	
	0.419521	
	0.483661	
	0.531848	
	0.560629	
	0.570825	
	0.572963	
	0.580199	
	0.583982	
	0.596646	
	0.596810	
	0.602895	
	0.598126	
	0.597797	
	0.595001	
	0.587436	
	0.578884	
	0.570825	
	0.554215	
	0.545498	
	0.514580	
	0.494022	
	0.420837	
	0.334660	
	0.312457	
	0.295847	
	0.289926	
	0.281868	
	0.281045	
	0.266408	
	0.266079	
	0.268382	
	0.271836	
	0.270849	
	0.272987	
	0.279236	
	0.293873	
	0.297163	
	0.312293	
	0.318378	
	0.350777	
	0.400773	
	0.500107	
	0.541880	
	0.558326	
	0.577075	
	0.582502	
	0.588751	
	0.595823	
	0.603388	
	0.601415	
	0.602402	
	0.597961	
	0.597632	
	0.595330	0.049669
	0.582666	
	0.578226	
	0.574608	
	0.565234	
	0.549939	
	0.523954	
	0.491391	
	0.441066	
	0.349297	
	0.319200	
	0.303905	
	0.295847	
	0.282854	
	0.279894	
	0.261310	
	0.268546	
	0.263119	
	0.271507	
	0.271836	
	0.276441	
	0.283348	
	0.297163	
	0.299629	
	0.322325	
	0.332851	
	0.375610	
	0.410476	
	0.476754	
	0.538262	
	0.558655	
	0.569838	
	0.574937	
	0.583982	
	0.588258	
	0.596646	
	0.596152	
	0.599770	
	0.598126	
	0.596152	
	0.592205	
	0.587436	
	0.573950	
	0.572305	
	0.556353	
	0.544347	
	0.508001	
	0.470175	
	0.428896	
	0.352586	
	0.333508	
	0.302590	
	0.291571	
	0.284499	
	0.282032	
	0.271671	
	0.275618	
	0.272987	
	0.274138	
	0.274796	
	0.285157	
	0.286473	
	0.304399	
	0.300781	
	0.322983	
	0.334002	
	0.389261	
	0.423633	
	0.498298	
	0.542209	
	0.562602	
	0.573457	
	0.580693	
	0.584804	
	0.593356	
	0.601086	
	0.598126	
	0.603060	
	0.598784	
	0.596481	
	0.595823	
	0.587600	
	0.577897	
	0.577404	
	0.555201	
	0.551090	
	0.525927	
	0.498791	
	0.464748	
	0.364756	
	0.344034	
	0.321832	
	0.306372	
	0.295189	
	0.287295	
	0.269204	
	0.274303	
	0.264928	
	0.270849	
	0.271178	
	0.275125	0.030008
	0.286966	
	0.297820	
	0.298807	
	0.324463	
	0.339758	
	0.367387	
	0.427909	
	0.500436	
	0.532999	
	0.557668	
	0.567372	
	0.570661	
	0.579871	
	0.584969	
	0.597961	
	0.595988	
	0.599770	
	0.598948	
	0.594836	
	0.592534	
	0.587436	
	0.579377	
	0.578226	
	0.560958	
	0.552899	
	0.527572	
	0.496489	
	0.411792	
	0.337784	
	0.319365	
	0.302919	
	0.296669	
	0.286637	
	0.279072	
	0.271507	
	0.274960	
	0.267231	
	0.270849	
	0.273151	
	0.276769	
	0.284664	
	0.302425	
	0.304892	
	0.319365	
	0.335153	
	0.378077	
	0.436132	
	0.499449	
	0.540400	
	0.562273	
	0.577075	
	0.582502	
	0.584804	
	0.585298	
	0.597797	
	0.595823	
	0.597961	
	0.598126	
	0.599935	
	0.597961	
	0.587765	
	0.570496	
	0.565562	
	0.549774	
	0.541387	
	0.510468	
	0.468366	
	0.404884	
	0.348639	
	0.334002	
	0.314102	
	0.306701	
	0.298478	
	0.294696	
	0.279730	
	0.281374	
	0.273645	
	0.277263	
	0.278743	
	0.283183	
	0.294038	
	0.310813	
	0.313280	
	0.335482	
	0.352586	
	0.394030	
	0.484483	
	0.495009	
	0.539084	
	0.555695	
	0.572141	
	0.580035	
	0.586942	
	0.590396	
	0.597303	
	0.598619	
	0.602895	
	0.600922	
	0.599441	
	0.594672	0.050170
	0.590396	
	0.581186	
	0.580364	
	0.565398	
	0.549445	
	0.536453	
	0.499778	
	0.461459	
	0.352586	
	0.324299	
	0.306701	
	0.293873	
	0.287130	
	0.284499	
	0.272822	
	0.275454	
	0.268382	
	0.274960	
	0.277921	
	0.274631	
	0.279072	
	0.297820	
	0.300287	
	0.330384	
	0.355546	
	0.388603	
	0.461294	
	0.496324	
	0.538262	
	0.557668	
	0.574608	
	0.580528	
	0.584640	
	0.592863	
	0.599112	
	0.597961	
	0.601908	
	0.598290	
	0.597961	
	0.594343	
	0.590067	
	0.578226	
	0.577075	
	0.559971	
	0.548787	
	0.525105	
	0.507343	
	0.451262	
	0.359658	
	0.324792	
	0.305715	
	0.295353	
	0.286144	
	0.280716	
	0.269698	
	0.270355	
	0.271507	
	0.274138	
	0.273809	
	0.277592	
	0.287624	
	0.304892	
	0.304563	
	0.320516	
	0.336633	
	0.390905	
	0.423962	
	0.491226	
	0.534808	
	0.557833	
	0.571154	
	0.578061	
	0.589409	
	0.589903	
	0.597303	
	0.599606	
	0.606184	
	0.601579	
	0.598784	
	0.595659	
	0.590560	
	0.579871	
	0.579377	
	0.563753	
	0.551419	
	0.526092	
	0.493858	
	0.436625	
	0.345021	
	0.322490	
	0.304070	
	0.297327	
	0.284006	
	0.285321	
	0.269862	
	0.269204	
	0.267395	
	0.269862	
	0.277756	
	0.279565	0.057170
	0.291242	
	0.309826	
	0.305057	
	0.324627	
	0.346665	
	0.378900	
	0.460637	
	0.494844	
	0.546649	
	0.557339	
	0.571648	
	0.579542	
	0.583818	
	0.586778	
	0.601415	
	0.600428	
	0.599606	
	0.600264	
	0.597797	
	0.596646	
	0.589574	
	0.581186	
	0.575923	
	0.566056	
	0.554873	
	0.531355	
	0.494680	
	0.473136	
	0.352257	
	0.336633	
	0.300781	
	0.291242	
	0.283348	
	0.277592	
	0.264928	
	0.267395	
	0.265586	
	0.263284	
	0.266573	
	0.272493	
	0.279236	
	0.295025	
	0.300287	
	0.316898	
	0.341567	
	0.379722	
	0.462281	
	0.502903	
	0.543196	
	0.562767	
	0.576088	
	0.581515	
	0.586613	
	0.589409	
	0.600922	
	0.599441	
	0.600099	
	0.594508	
	0.593192	
	0.587929	
	0.579048	
	0.569674	
	0.567372	
	0.557997	
	0.558162	
	0.542209	
	0.515566	
	0.478892	
	0.370676	
	0.337291	
	0.307853	
	0.298314	
	0.285321	
	0.277592	
	0.269040	
	0.269698	
	0.269533	
	0.273809	
	0.277427	
	0.278907	
	0.283019	
	0.295518	
	0.300945	
	0.323805	
	0.338607	
	0.385642	
	0.444026	
	0.481687	
	0.533657	
	0.545992	
	0.564247	
	0.577404	
	0.582173	
	0.590560	
	0.597303	
	0.597139	
	0.599277	
	0.599441	
	0.597797	
	0.598455	0.031841
	0.594014	
	0.580035	
	0.576417	
	0.558984	
	0.550432	
	0.519678	
	0.504054	
	0.459321	
	0.358013	
	0.338936	
	0.312293	
	0.300452	
	0.290255	
	0.284006	
	0.276112	
	0.272493	
	0.270684	
	0.280223	
	0.283348	
	0.285321	
	0.297163	
	0.305715	
	0.306372	
	0.323970	
	0.341238	
	0.372321	
	0.405871	
	0.490897	
	0.532012	
	0.552570	
	0.573785	
	0.578226	
	0.587436	
	0.591547	
	0.601250	
	0.602073	
	0.606020	
	0.601250	
	0.600099	
	0.597961	
	0.591876	
	0.581680	
	0.576252	
	0.567536	
	0.554708	
	0.534479	
	0.507343	
	0.471655	
	0.375939	
	0.333344	
	0.314595	
	0.302425	
	0.292722	
	0.283348	
	0.274796	
	0.270849	
	0.273809	
	0.275125	
	0.275454	
	0.280223	
	0.286637	
	0.308017	
	0.305221	
	0.324463	
	0.344527	
	0.380380	
	0.445835	
	0.477576	
	0.531684	
	0.552077	
	0.567043	
	0.570167	
	0.581515	
	0.585956	
	0.596810	
	0.600099	
	0.601250	
	0.597303	
	0.593521	
	0.594343	
	0.586778	
	0.581022	
	0.578719	
	0.563753	
	0.549281	
	0.523625	
	0.487444	
	0.460472	
	0.356533	
	0.330548	
	0.310319	
	0.296176	
	0.289268	
	0.282197	
	0.274138	
	0.270520	
	0.267066	
	0.272329	
	0.275289	
	0.278085	0.031152
	0.283348	
	0.294860	
	0.298972	
	0.315089	
	0.336962	
	0.367881	
	0.407187	
	0.490239	
	0.535302	
	0.552077	
	0.566056	
	0.575266	
	0.582009	
	0.585956	
	0.596810	
	0.597797	
	0.601415	
	0.599112	
	0.598455	
	0.595001	
	0.595494	
	0.582173	
	0.577075	
	0.558984	
	0.557833	
	0.527901	
	0.500600	
	0.452742	
	0.367716	
	0.346336	
	0.313280	
	0.304728	
	0.285979	
	0.279894	
	0.263613	
	0.265257	
	0.265751	
	0.265257	
	0.271836	
	0.273645	
	0.280716	
	0.292887	
	0.298972	
	0.310977	
	0.318871	
	0.357191	
	0.396168	
	0.429718	
	0.525270	
	0.543196	
	0.566714	
	0.578884	
	0.587436	
	0.588916	
	0.600428	
	0.602073	
	0.603224	
	0.602402	
	0.599935	
	0.592205	
	0.591876	
	0.579542	
	0.575430	
	0.559806	
	0.556846	
	0.533328	
	0.496653	
	0.430705	
	0.351270	
	0.330219	
	0.305879	
	0.298149	
	0.291406	
	0.284006	
	0.273480	
	0.270849	
	0.267724	
	0.269204	
	0.270684	
	0.277098	
	0.280059	
	0.297820	
	0.298972	
	0.310484	
	0.331864	
	0.356697	
	0.413601	
	0.466228	
	0.530039	
	0.551419	
	0.569838	
	0.572470	
	0.581680	
	0.584969	
	0.597139	
	0.600593	
	0.600922	
	0.602073	
	0.598784	
	0.594508	0.044527
	0.593685	
	0.585298	
	0.580528	
	0.556846	
	0.548459	
	0.528230	
	0.499449	
	0.477083	
	0.382024	
	0.344527	
	0.315747	
	0.304728	
	0.293380	
	0.284664	
	0.273645	
	0.269040	
	0.264435	
	0.270191	
	0.275289	
	0.275454	
	0.280716	
	0.294696	
	0.295847	
	0.312128	
	0.332193	
	0.367716	
	0.416068	
	0.478563	
	0.520829	
	0.547307	
	0.566714	
	0.572963	
	0.581844	
	0.586778	
	0.598784	
	0.600922	
	0.600922	
	0.600428	
	0.596152	
	0.595494	
	0.589245	
	0.579871	
	0.570167	
	0.560300	
	0.547965	
	0.530203	
	0.499614	
	0.437612	
	0.367387	
	0.334660	
	0.316733	
	0.310648	
	0.300945	
	0.294860	
	0.282032	
	0.275125	
	0.268711	
	0.269369	
	0.274303	
	0.279072	
	0.282690	
	0.290913	
	0.297163	
	0.306043	
	0.320845	
	0.344856	
	0.368045	
	0.399622	
	0.508495	
	0.533822	
	0.557668	
	0.567043	
	0.576746	
	0.588916	
	0.597632	
	0.604375	
	0.606020	
	0.603224	
	0.601744	
	0.597797	
	0.589409	
	0.583653	
	0.574937	
	0.566220	
	0.555037	
	0.532670	
	0.497969	
	0.467873	
	0.377419	
	0.335975	
	0.314595	
	0.299136	
	0.292393	
	0.281868	
	0.272822	
	0.270191	
	0.275618	
	0.274303	
	0.272987	
	0.274138	0.043190
	0.275618	
	0.283677	
	0.290091	
	0.305386	
	0.329726	
	0.381531	
	0.434158	
	0.493693	
	0.534315	
	0.553886	
	0.576088	
	0.583489	
	0.590560	
	0.589245	
	0.595330	
	0.596974	
	0.599112	
	0.595001	
	0.596481	
	0.589409	
	0.588258	
	0.578555	
	0.573128	
	0.561780	
	0.548787	
	0.540564	
	0.508824	
	0.492542	
	0.386465	
	0.348145	
	0.322654	
	0.305221	
	0.294696	
	0.284828	
	0.270355	
	0.264764	
	0.261968	
	0.269040	
	0.269862	
	0.270520	
	0.280716	
	0.288940	
	0.303577	
	0.313938	
	0.321667	
	0.351435	
	0.388603	
	0.477412	
	0.528888	
	0.557833	
	0.576417	
	0.582502	
	0.585462	
	0.588094	
	0.592370	
	0.595823	
	0.596810	
	0.597139	
	0.590889	
	0.586285	
	0.579542	
	0.575430	
	0.573292	
	0.564740	
	0.553557	
	0.546649	
	0.529546	
	0.503890	
	0.389261	
	0.348968	
	0.319365	
	0.302261	
	0.289433	
	0.282197	
	0.276112	
	0.275289	
	0.271507	
	0.273480	
	0.275783	
	0.277756	
	0.281703	
	0.296011	
	0.296669	
	0.309004	
	0.332193	
	0.352750	
	0.388603	
	0.444026	
	0.515731	
	0.539413	
	0.563589	
	0.570332	
	0.576746	
	0.590396	
	0.598619	
	0.605033	
	0.603882	
	0.604375	
	0.598784	
	0.598619	0.032370
	0.593356	
	0.583324	
	0.582337	
	0.577404	
	0.558491	
	0.531519	
	0.505041	
	0.485963	
	0.386300	
	0.344363	
	0.316569	
	0.308346	
	0.293380	
	0.284664	
	0.281703	
	0.270355	
	0.270684	
	0.275783	
	0.274467	
	0.276112	
	0.280223	
	0.290749	
	0.296505	
	0.313773	
	0.329232	
	0.359987	
	0.403733	
	0.482839	
	0.529546	
	0.549939	
	0.570661	
	0.575759	
	0.582666	
	0.587600	
	0.593850	
	0.603388	
	0.605362	
	0.604869	
	0.601415	
	0.597632	
	0.591876	
	0.586120	
	0.578061	
	0.565398	
	0.550925	
	0.531026	
	0.505863	
	0.445671	
	0.368374	
	0.319200	
	0.299301	
	0.288940	
	0.280059	
	0.276112	
	0.269698	
	0.263284	
	0.263777	
	0.266902	
	0.269698	
	0.264599	
	0.260652	
	0.268382	
	0.275125	
	0.294531	
	0.332686	
	0.421824	
	0.510139	
	0.534315	
	0.539249	
	0.550432	
	0.562931	
	0.566714	
	0.576252	
	0.582995	
	0.588258	
	0.595988	
	0.597961	
	0.602402	
	0.597632	
	0.592863	
	0.593850	
	0.589574	
	0.582009	
	0.566220	
	0.553557	
	0.531848	
	0.492049	
	0.447973	
	0.364427	
	0.330548	
	0.310484	
	0.303905	
	0.289762	
	0.278907	
	0.269698	
	0.261310	
	0.260323	
	0.263777	
	0.267231	
	0.267560	0.042407
	0.273151	
	0.280388	
	0.286637	
	0.301603	
	0.321503	
	0.338607	
	0.373143	
	0.471655	
	0.526914	
	0.562931	
	0.579706	
	0.577733	
	0.580364	
	0.583489	
	0.589245	
	0.599606	
	0.597797	
	0.598948	
	0.597961	
	0.601579	
	0.600757	
	0.596974	
	0.592863	
	0.589738	
	0.581515	
	0.577897	
	0.565398	
	0.545992	
	0.514744	
	0.456196	
	0.344856	
	0.324627	
	0.303248	
	0.298972	
	0.287788	
	0.275125	
	0.270191	
	0.257528	
	0.253252	
	0.250785	
	0.251607	
	0.256047	
	0.268217	
	0.282197	
	0.301767	
	0.332028	
	0.373637	
	0.473464	
	0.535960	
	0.567207	
	0.592863	
	0.606842	
	0.610625	
	0.614572	
	0.620657	
	0.624110	
	0.628715	
	0.628386	
	0.625426	
	0.619177	
	0.612434	
	0.598455	
	0.577568	
	0.555037	
	0.537604	
	0.495667	
	0.354395	
	0.299958	
	0.274303	
	0.263119	
	0.259008	
	0.256376	
	0.253087	
	0.247166	
	0.238615	
	0.237299	
	0.239437	
	0.242233	
	0.248647	
	0.250785	
	0.258514	
	0.266902	
	0.270191	
	0.280388	
	0.290420	
	0.305879	
	0.322818	
	0.346007	
	0.381531	
	0.484977	
	0.532341	
	0.548294	
	0.559642	
	0.564740	
	0.570661	
	0.585133	
	0.585462	
	0.588751	
	0.583982	
	0.582502	0.052628
	0.578884	
	0.571976	
	0.564411	
	0.548952	
	0.531519	
	0.495173	
	0.427909	
	0.369361	
	0.338771	
	0.310484	
	0.291406	
	0.289433	
	0.283841	
	0.274303	
	0.271507	
	0.262132	
	0.261803	
	0.260817	
	0.264599	
	0.271013	
	0.271178	
	0.284664	
	0.294038	
	0.301767	
	0.318871	
	0.350777	
	0.382518	
	0.409325	
	0.503067	
	0.531848	
	0.558162	
	0.571483	
	0.579048	
	0.582337	
	0.586778	
	0.591876	
	0.594836	
	0.598290	
	0.601415	
	0.592863	
	0.590725	
	0.579213	
	0.570332	
	0.561451	
	0.546321	
	0.520829	
	0.470669	
	0.406036	
	0.346172	
	0.325779	
	0.311306	
	0.304070	
	0.296669	
	0.285486	
	0.278907	
	0.263448	
	0.264106	
	0.264270	
	0.267724	
	0.272165	
	0.279894	
	0.292887	
	0.302096	
	0.309004	
	0.324627	
	0.349790	
	0.380380	
	0.419850	
	0.483332	
	0.535302	
	0.555859	
	0.564576	
	0.569674	
	0.579871	
	0.585133	
	0.597468	
	0.598455	
	0.600264	
	0.596317	
	0.596317	
	0.588422	
	0.586613	
	0.574279	
	0.557175	
	0.541551	
	0.523954	
	0.511290	
	0.472313	
	0.393701	
	0.336962	
	0.318542	
	0.312951	
	0.304728	
	0.287459	
	0.281374	
	0.269204	
	0.267889	
	0.267560	
	0.271507	
	0.271507	0.036582
	0.273809	
	0.286802	
	0.299136	
	0.309333	
	0.330384	
	0.346007	
	0.388603	
	0.423962	
	0.503890	
	0.537275	
	0.561780	
	0.568029	
	0.576910	
	0.583982	
	0.587765	
	0.594343	
	0.595001	
	0.597632	
	0.597139	
	0.595494	
	0.593027	
	0.584311	
	0.578555	
	0.566714	
	0.560793	
	0.542702	
	0.506686	
	0.474122	
	0.392056	
	0.337784	
	0.317885	
	0.312951	
	0.293873	
	0.290091	
	0.280223	
	0.269533	
	0.272000	
	0.265586	
	0.266737	
	0.273151	
	0.276441	
	0.285979	
	0.298807	
	0.312128	
	0.335975	
	0.353408	
	0.380051	
	0.434323	
	0.496653	
	0.539742	
	0.564082	
	0.572305	
	0.576910	
	0.584804	
	0.587929	
	0.602402	
	0.599935	
	0.600922	
	0.599112	
	0.595494	
	0.594836	
	0.587271	
	0.578555	
	0.573950	
	0.559642	
	0.545498	
	0.517540	
	0.481359	
	0.388767	
	0.334495	
	0.306866	
	0.299794	
	0.283183	
	0.278907	
	0.273645	
	0.268546	
	0.266408	
	0.267231	
	0.272165	
	0.274796	
	0.277098	
	0.284828	
	0.296669	
	0.305221	
	0.323970	
	0.352421	
	0.382024	
	0.444519	
	0.500107	
	0.536946	
	0.557010	
	0.572963	
	0.579048	
	0.585956	
	0.586449	
	0.596481	
	0.594836	
	0.595165	
	0.597303	
	0.592205	0.026910
	0.592370	
	0.584969	
	0.574772	
	0.563753	
	0.548787	
	0.534644	
	0.491884	
	0.482016	
	0.468037	
	0.394852	
	0.338278	
	0.301603	
	0.291078	
	0.277921	
	0.273480	
	0.265751	
	0.272165	
	0.274138	
	0.284828	
	0.288117	
	0.298149	
	0.308017	
	0.324134	
	0.328739	
	0.357684	
	0.394523	
	0.468366	
	0.518033	
	0.536946	
	0.557175	
	0.575266	
	0.579377	
	0.578226	
	0.581022	
	0.587271	
	0.599441	
	0.594014	
	0.597303	
	0.594672	
	0.599277	
	0.596810	
	0.584640	
	0.575430	
	0.567043	
	0.547472	
	0.534973	
	0.503725	
	0.449947	
	0.389425	
	0.341238	
	0.317885	
	0.305221	
	0.294860	
	0.284499	
	0.284006	
	0.266408	
	0.270027	
	0.269204	
	0.270520	
	0.271671	
	0.277756	
	0.287295	
	0.299629	
	0.319200	
	0.343212	
	0.368703	
	0.412450	
	0.470998	
	0.517047	
	0.548787	
	0.569510	
	0.575101	
	0.580364	
	0.587600	
	0.590067	
	0.600757	
	0.599112	
	0.605197	
	0.596810	
	0.598126	
	0.593192	
	0.586285	
	0.582502	
	0.570825	
	0.554050	
	0.521323	
	0.456689	
	0.374295	
	0.361960	
	0.333179	
	0.319200	
	0.317885	
	0.312293	
	0.314266	
	0.304892	
	0.292064	
	0.293873	
	0.287459	
	0.291078	
	0.290584	0.027513
	0.295353	
	0.296505	
	0.302425	
	0.300616	
	0.329561	
	0.364098	
	0.427580	
	0.466886	
	0.496160	
	0.518527	
	0.534644	
	0.550925	
	0.567372	
	0.574608	
	0.580035	
	0.595001	
	0.594508	
	0.595165	
	0.591383	
	0.592534	
	0.590232	
	0.583324	
	0.570003	
	0.566220	
	0.550761	
	0.534150	
	0.516553	
	0.505370	
	0.465899	
	0.361796	
	0.328410	
	0.311471	
	0.297491	
	0.289433	
	0.276934	
	0.258021	
	0.252923	
	0.247166	
	0.252429	
	0.256376	
	0.257363	
	0.264435	
	0.277098	
	0.284335	
	0.308017	
	0.329397	
	0.361467	
	0.401760	
	0.452742	
	0.536288	
	0.558655	
	0.569674	
	0.577239	
	0.584640	
	0.586449	
	0.600757	
	0.597139	
	0.601908	
	0.597139	
	0.597632	
	0.592863	
	0.588751	
	0.580857	
	0.575923	
	0.565562	
	0.553063	
	0.508330	
	0.440079	
	0.408009	
	0.335646	
	0.312951	
	0.292722	
	0.293380	
	0.285157	
	0.281539	
	0.268875	
	0.265422	
	0.260817	
	0.258843	
	0.257034	
	0.259337	
	0.269862	
	0.286144	
	0.299465	
	0.333344	
	0.351928	
	0.376762	
	0.412943	
	0.476425	
	0.536288	
	0.561286	
	0.572963	
	0.583489	
	0.589080	
	0.595988	
	0.605033	
	0.605691	
	0.610131	
	0.605362	
	0.602895	0.039719
	0.602402	
	0.593685	
	0.584804	
	0.577404	
	0.567043	
	0.552077	
	0.527408	
	0.505534	
	0.455209	
	0.358506	
	0.322818	
	0.302919	
	0.291406	
	0.278250	
	0.278250	
	0.268382	
	0.272329	
	0.269204	
	0.274138	
	0.274796	
	0.283348	
	0.287295	
	0.300287	
	0.300781	
	0.319694	
	0.335646	
	0.377584	
	0.439914	
	0.482181	
	0.523461	
	0.550925	
	0.566549	
	0.573785	
	0.581680	
	0.584475	
	0.600593	
	0.596317	
	0.601415	
	0.598619	
	0.598619	
	0.594836	
	0.586449	
	0.573950	
	0.567700	
	0.554215	
	0.545334	
	0.537275	
	0.533986	
	0.529546	
	0.484648	
	0.426429	
	0.382353	
	0.361138	
	0.336304	
	0.328575	
	0.305221	
	0.315253	
	0.299465	
	0.298314	
	0.300123	
	0.306372	
	0.303577	
	0.310977	
	0.296834	
	0.300287	
	0.298314	
	0.299958	
	0.294860	
	0.307688	
	0.348639	
	0.441230	
	0.534644	
	0.558162	
	0.575759	
	0.580035	
	0.595165	
	0.595165	
	0.600264	
	0.598784	
	0.595659	
	0.594672	
	0.589574	
	0.577733	
	0.576746	
	0.565891	
	0.558984	
	0.540893	
	0.512113	
	0.465735	
	0.345350	
	0.319365	
	0.291571	
	0.278907	
	0.269040	
	0.265257	
	0.257363	
	0.259666	
	0.262955	
	0.269204	
	0.274796	0.050405
	0.275289	
	0.285486	
	0.294696	
	0.305221	
	0.324134	
	0.344198	
	0.387780	
	0.455045	
	0.523954	
	0.556682	
	0.567865	
	0.585462	
	0.597139	
	0.600757	
	0.605855	
	0.611940	
	0.602402	
	0.603060	
	0.596317	
	0.594672	
	0.592205	
	0.584640	
	0.575266	
	0.568194	
	0.542045	
	0.520665	
	0.477905	
	0.416890	
	0.370841	
	0.336140	
	0.314760	
	0.300452	
	0.282361	
	0.280881	
	0.281374	
	0.267560	
	0.273480	
	0.269698	
	0.274138	
	0.273316	
	0.277921	
	0.286144	
	0.300287	
	0.316404	
	0.326272	
	0.364591	
	0.423797	
	0.493693	
	0.503396	
	0.545169	
	0.562438	
	0.575759	
	0.578061	
	0.585956	
	0.590889	
	0.603060	
	0.601744	
	0.603388	
	0.602566	
	0.604046	
	0.602731	
	0.598948	
	0.586285	
	0.583489	
	0.566549	
	0.557997	
	0.543360	
	0.520829	
	0.504054	
	0.389754	
	0.348310	
	0.331699	
	0.315253	
	0.297656	
	0.289597	
	0.278085	
	0.275125	
	0.273809	
	0.276276	
	0.275783	
	0.278743	
	0.288775	
	0.299629	
	0.304234	
	0.327094	
	0.348474	
	0.389918	
	0.437448	
	0.494186	
	0.541716	
	0.557997	
	0.575430	
	0.579542	
	0.587600	
	0.592698	
	0.603553	
	0.600593	
	0.601250	
	0.600593	
	0.599606	0.049512
	0.598784	
	0.595494	
	0.585956	
	0.583818	
	0.569838	
	0.564740	
	0.544347	
	0.514251	
	0.480043	
	0.370512	
	0.348310	
	0.318707	
	0.308181	
	0.301603	
	0.298314	
	0.281703	
	0.280881	
	0.276605	
	0.282032	
	0.283348	
	0.289597	
	0.301603	
	0.317720	
	0.329232	
	0.364756	
	0.381531	
	0.431691	
	0.486786	
	0.520994	
	0.554215	
	0.566385	
	0.579048	
	0.583160	
	0.586942	
	0.591547	
	0.600099	
	0.599770	
	0.605197	
	0.604869	
	0.603388	
	0.601250	
	0.599441	
	0.586778	
	0.583324	
	0.572634	
	0.568852	
	0.552899	
	0.538262	
	0.522803	
	0.460308	
	0.380709	
	0.346830	
	0.319036	
	0.306208	
	0.304234	
	0.284828	
	0.286144	
	0.282526	
	0.281374	
	0.293051	
	0.295025	
	0.311306	
	0.330877	
	0.344527	
	0.377913	
	0.421001	
	0.501752	
	0.535137	
	0.562438	
	0.577897	
	0.586778	
	0.596481	
	0.597797	
	0.600264	
	0.605197	
	0.612434	
	0.612927	
	0.618354	
	0.615723	
	0.615723	
	0.609802	
	0.598784	
	0.581022	
	0.578719	
	0.561122	
	0.562273	
	0.559148	
	0.543854	
	0.540400	
	0.462281	
	0.375775	
	0.324134	
	0.307853	
	0.301110	
	0.292887	
	0.283841	
	0.288611	
	0.285650	
	0.291571	
	0.296011	0.030368
	0.309004	
	0.309168	
	0.331535	
	0.330713	
	0.379393	
	0.428238	
	0.512606	
	0.532999	
	0.545827	
	0.569838	
	0.584475	
	0.604046	
	0.607993	
	0.614243	
	0.615230	
	0.619834	
	0.619177	
	0.621644	
	0.618683	
	0.611611	
	0.609473	
	0.601908	
	0.595988	
	0.592205	
	0.576417	
	0.560629	
	0.525434	
	0.500272	
	0.502903	
	0.420179	
	0.388932	
	0.357849	
	0.371005	
	0.334824	
	0.328246	
	0.306208	
	0.314595	
	0.305879	
	0.299629	
	0.300287	
	0.303412	
	0.299301	
	0.299794	
	0.292229	
	0.315911	
	0.334002	
	0.365907	
	0.450933	
	0.518198	
	0.558655	
	0.573457	
	0.585133	
	0.589245	
	0.592698	
	0.596974	
	0.608651	
	0.608816	
	0.612927	
	0.612434	
	0.611283	
	0.613092	
	0.609802	
	0.599112	
	0.593850	
	0.582009	
	0.572470	
	0.559477	
	0.543689	
	0.528559	
	0.416397	
	0.378242	
	0.346007	
	0.332522	
	0.319036	
	0.312951	
	0.299136	
	0.299465	
	0.296340	
	0.300781	
	0.299958	
	0.303577	
	0.320516	
	0.339264	
	0.342060	
	0.382682	
	0.412450	
	0.505205	
	0.530368	
	0.550925	
	0.563096	
	0.576252	
	0.578719	
	0.577404	
	0.582009	
	0.589080	
	0.599112	
	0.598126	
	0.607007	
	0.606678	
	0.603717	0.071958
	0.600264	
	0.597632	
	0.596810	
	0.598619	
	0.596974	
	0.595659	
	0.587765	
	0.591547	
	0.590560	
	0.564247	
	0.550761	
	0.522638	
	0.501916	
	0.482510	
	0.437612	
	0.353573	
	0.325779	
	0.280716	
	0.263119	
	0.254896	
	0.264928	
	0.282032	
	0.291571	
	0.296176	
	0.339758	
	0.460965	
	0.534644	
	0.542702	
	0.540893	
	0.558491	
	0.562931	
	0.579871	
	0.582009	
	0.588258	
	0.582831	
	0.571812	
	0.560464	
	0.545827	
	0.537604	
	0.552406	
	0.556682	
	0.569838	
	0.571648	
	0.581680	
	0.571812	
	0.559477	
	0.525763	
	0.494022	
	0.448960	
	0.381860	
	0.372979	
	0.356368	
	0.365249	
	0.325943	
	0.305057	
	0.287624	
	0.283348	
	0.294202	
	0.311306	
	0.349954	
	0.473629	
	0.539742	
	0.559642	
	0.510633	
	0.487444	
	0.540564	
	0.459156	
	0.349790	
	0.358013	
	0.464912	
	0.509152	
	0.496982	
	0.404391	
	0.325614	
	0.327094	
	0.359658	
	0.359493	
	0.506192	
	0.600922	
	0.618848	
	0.609145	
	0.584311	
	0.548623	
	0.512442	
	0.383669	
	0.407845	
	0.417548	
	0.432678	
	0.374130	
	0.341567	
	0.336304	
	0.326272	
	0.328081	
	0.322161	
	0.354559	
	0.341567	
	0.367552	
	0.339264	
	0.326765	
	0.321996	0.049516
	0.293709	
	0.287788	
	0.297656	
	0.300945	
	0.319200	
	0.344527	
	0.415574	
	0.503725	
	0.536288	
	0.548787	
	0.552735	
	0.536946	
	0.519185	
	0.531519	
	0.550597	
	0.567700	
	0.572799	
	0.586613	
	0.576417	
	0.567865	
	0.554215	
	0.533822	
	0.503396	
	0.477905	
	0.489746	
	0.510304	
	0.513593	
	0.477905	
	0.401102	
	0.347323	
	0.322490	
	0.305879	
	0.292064	
	0.280388	
	0.274796	
	0.263941	
	0.265422	
	0.262461	
	0.266408	
	0.266408	
	0.269533	
	0.274960	
	0.285486	
	0.292064	
	0.304399	
	0.328575	
	0.354230	
	0.442217	
	0.524118	
	0.560958	
	0.572470	
	0.592370	
	0.600428	
	0.606678	
	0.609967	
	0.617039	
	0.615394	
	0.616874	
	0.615394	
	0.608158	
	0.597961	
	0.586942	
	0.572470	
	0.575430	
	0.577075	
	0.585298	
	0.579706	
	0.568029	
	0.530203	
	0.335975	
	0.298643	
	0.294202	
	0.289433	
	0.284006	
	0.281045	
	0.283183	
	0.287788	
	0.283841	
	0.280059	
	0.278907	
	0.279072	
	0.282854	
	0.296340	
	0.295518	
	0.311635	
	0.305221	
	0.321174	
	0.376433	
	0.439421	
	0.517211	
	0.492871	
	0.516389	
	0.564905	
	0.593356	
	0.598126	
	0.606513	
	0.602566	
	0.589903	
	0.587600	
	0.586942	0.060898
	0.594179	
	0.601086	
	0.597961	
	0.588916	
	0.567043	
	0.551254	
	0.528723	
	0.500600	
	0.522967	
	0.533657	
	0.548952	
	0.526256	
	0.518033	
	0.444026	
	0.313773	
	0.277756	
	0.261803	
	0.251114	
	0.241246	
	0.234503	
	0.223484	
	0.215261	
	0.214274	
	0.219373	
	0.245193	
	0.280388	
	0.348968	
	0.365578	
	0.369032	
	0.504548	
	0.570167	
	0.584640	
	0.590725	
	0.605526	
	0.614407	
	0.619999	
	0.610954	
	0.602566	
	0.592205	
	0.596317	
	0.603224	
	0.607829	
	0.601086	
	0.589245	
	0.538920	
	0.425277	
	0.323970	
	0.303248	
	0.288940	
	0.266737	
	0.267395	
	0.269040	
	0.287788	
	0.294202	
	0.307853	
	0.297163	
	0.280059	
	0.272493	
	0.267395	
	0.266079	
	0.266408	
	0.268217	
	0.273809	
	0.273480	
	0.273316	
	0.272658	
	0.286308	
	0.306043	
	0.334989	
	0.385478	
	0.479714	
	0.540729	
	0.547965	
	0.562438	
	0.568687	
	0.581680	
	0.585791	
	0.588258	
	0.583982	
	0.583653	
	0.584640	
	0.580035	
	0.575430	
	0.562767	
	0.550597	
	0.534315	
	0.497969	
	0.447315	
	0.395675	
	0.349132	
	0.319858	
	0.302096	
	0.289268	
	0.279401	
	0.275947	
	0.263119	
	0.262132	
	0.264764	
	0.266079	
	0.265915	0.077176
	0.270191	
	0.271836	
	0.275125	
	0.283841	
	0.290091	
	0.306372	
	0.340251	
	0.370019	
	0.414752	
	0.504219	
	0.527736	
	0.548459	
	0.548952	
	0.545005	
	0.541058	
	0.559642	
	0.571976	
	0.578226	
	0.581680	
	0.583818	
	0.582337	
	0.572141	
	0.559477	
	0.565891	
	0.574443	
	0.578555	
	0.573128	
	0.558326	
	0.552241	
	0.516224	
	0.491062	
	0.375610	
	0.328903	
	0.303577	
	0.295353	
	0.281374	
	0.273151	
	0.273809	
	0.273480	
	0.269204	
	0.264106	
	0.272329	
	0.289926	
	0.300452	
	0.321338	
	0.344198	
	0.387451	
	0.455374	
	0.470998	
	0.533164	
	0.543854	
	0.567700	
	0.570825	
	0.570167	
	0.564247	
	0.578884	
	0.593027	
	0.604869	
	0.614736	
	0.619670	
	0.618519	
	0.614078	
	0.602073	
	0.596810	
	0.593685	
	0.592041	
	0.572305	
	0.520171	
	0.400773	
	0.331041	
	0.292393	
	0.276934	
	0.287295	
	0.289762	
	0.301110	
	0.304728	
	0.295353	
	0.293215	
	0.291900	
	0.284992	
	0.297163	
	0.314266	
	0.376268	
	0.446657	
	0.479549	
	0.373308	
	0.290091	
	0.264764	
	0.270520	
	0.294367	
	0.302096	
	0.335646	
	0.364920	
	0.480207	
	0.548130	
	0.578884	
	0.582995	
	0.582502	
	0.581351	
	0.584804	0.047463
	0.575595	
	0.580035	
	0.559642	
	0.555366	
	0.533657	
	0.515566	
	0.423962	
	0.370019	
	0.346501	
	0.325285	
	0.309497	
	0.289926	
	0.283183	
	0.274138	
	0.268875	
	0.257856	
	0.247166	
	0.247495	
	0.250456	
	0.249304	
	0.251936	
	0.255061	
	0.262461	
	0.263448	
	0.275289	
	0.287953	
	0.302096	
	0.317062	
